199.71	988.44
201.13	967.45
202.55	924.99
203.96	835.69
205.38	742.97
206.8	716.86
208.22	672.59
209.63	621.25
211.05	587.06
212.47	575.92
213.89	574.35
215.3	531.14
216.72	552.06
218.14	543.97
219.56	531.01
220.97	533.52
222.39	555.36
223.81	563.66
225.23	544.36
226.65	540.61
228.06	552.01
229.48	560.31
230.9	553.34
232.32	601.94
233.73	640.83
235.15	652.69
236.57	658.15
237.99	719.73
239.4	803.36
240.82	809.29
242.24	842.51
243.66	900.54
245.07	922.19
246.49	856.34
247.91	897.83
249.33	857.37
250.74	792.9
252.16	749.26
253.58	681.01
255	650.41
256.42	613.31
257.83	568.45
259.25	532.49
260.67	524.5
262.09	526.95
263.5	495.49
264.92	494.41
266.34	485.09
267.76	454.99
269.17	454.37
270.59	488.83
272.01	461.1
273.43	444.59
274.84	446.1
276.26	442.5
277.68	430.69
279.1	453.78
280.51	479.16
281.93	478.45
283.35	462.21
284.77	479.09
286.19	474.41
287.6	477.6
289.02	474.45
290.44	470.4
291.86	474.33
293.27	485.13
294.69	466.19
296.11	477.02
297.53	489.75
298.94	490.53
300.36	487.82
301.78	538.04
303.2	523.13
304.61	501.71
306.03	497.59
307.45	505.64
308.87	489.09
310.28	478.42
311.7	474.47
313.12	478.53
314.54	481.1
315.95	473.6
317.37	464.1
318.79	485.34
320.21	491.39
321.63	498.39
323.04	518.02
324.46	553.35
325.88	603.84
327.3	673.57
328.71	712.46
330.13	745.42
331.55	790.62
332.97	835.41
334.38	828.32
335.8	823.24
337.22	792.5
338.64	749.62
340.05	702.14
341.47	613.21
342.89	615.74
344.31	590.4
345.72	566.33
347.14	547.38
348.56	526.16
349.98	514.19
351.4	507.87
352.81	516.95
354.23	522.03
355.65	523.07
357.07	531.82
358.48	522.23
359.9	549.64
361.32	586.2
362.74	611.52
364.15	612.75
365.57	593.89
366.99	643.64
368.41	640.01
369.82	635.97
371.24	636.07
372.66	636.17
374.08	634.54
375.49	592.17
376.91	615.68
378.33	623.15
379.75	626.93
381.17	642.23
382.58	634.36
384	660
385.42	661.95
386.84	645.85
388.25	645.66
389.67	678.88
391.09	703.36
392.51	670.77
393.92	682.47
395.34	659.64
396.76	622.39
398.18	612.28
399.59	600.18
401.01	564.07
402.43	549.46
403.85	541.71
405.26	528.45
406.68	508.78
408.1	505.2
409.52	507.57
410.93	519.58
412.35	536.46
413.77	535.22
415.19	512.73
416.61	545.88
418.02	542.06
419.44	517.31
420.86	507.89
422.28	517.79
423.69	525.15
425.11	492.1
426.53	523.86
427.95	540.83
429.36	561.06
430.78	570
432.2	551.87
433.62	534.76
435.03	535.85
436.45	553.69
437.87	547.46
439.29	538.3
440.7	551.68
442.12	554.36
443.54	590.21
444.96	598.16
446.38	620.6
447.79	645.71
449.21	649.43
450.63	631.91
452.05	649.3
453.46	673.89
454.88	672.46
456.3	654.72
457.72	646.94
459.13	669.4
460.55	648.46
461.97	621.17
463.39	634.75
464.8	651.44
466.22	666.08
467.64	724.25
469.06	740.47
470.47	734.59
471.89	714.73
473.31	704.53
474.73	714.23
476.15	729.96
477.56	697.79
478.98	650.52
480.4	649.11
481.82	646.37
483.23	637.99
484.65	642.62
486.07	632.78
487.49	610.74
488.9	629.62
490.32	622.41
491.74	598.75
493.16	591.7
494.57	599.13
495.99	601.72
497.41	588.6
498.83	595.22
500.24	609.42
501.66	612.79
503.08	602.82
504.5	605.42
505.91	636.08
507.33	621.99
508.75	608.58
510.17	614.94
511.59	627.16
513	658.54
514.42	664.68
515.84	670.77
517.26	687.47
518.67	681.65
520.09	649.77
521.51	683.49
522.93	708.68
524.34	710.56
525.76	694.9
527.18	668.82
528.6	653.37
530.01	668.54
531.43	640.97
532.85	659.77
534.27	657.48
535.69	670.65
537.1	675.53
538.52	643.87
539.94	660.24
541.36	642.69
542.77	653.08
544.19	670.39
545.61	659.43
547.03	631.01
548.44	645.21
549.86	636.48
551.28	672.55
552.7	679.97
554.11	673.65
555.53	670.33
556.95	677.5
558.37	699.07
559.78	708.04
561.2	695.13
562.62	715.78
564.04	746.56
565.46	774.14
566.87	816.18
568.29	771.94
569.71	836.78
571.13	916.16
572.54	1036.3
573.96	1198.2
575.38	1403.3
576.8	1700.6
578.21	1951.3
579.63	2179.2
581.05	2312.4
582.47	2344.8
583.88	2314.4
585.3	2250.4
586.72	2053.4
588.14	1786.1
589.55	1496.1
590.97	1238.3
592.39	1061.4
593.81	955.24
595.22	845.68
596.64	789.65
598.06	755.68
599.48	737.02
600.9	750.29
602.31	759.78
603.73	737.32
605.15	745.4
606.57	760.86
607.98	759.79
609.4	749.03
610.82	724.52
612.24	711.04
613.65	730.74
615.07	714.19
616.49	724.44
617.91	760.11
619.32	767.96
620.74	763.33
622.16	759.64
623.58	750.34
624.99	780.02
626.41	793.63
627.83	767.03
629.25	763.26
630.67	787.6
632.08	821.91
633.5	851.76
634.92	828.72
636.34	829.79
637.75	802.91
639.17	793.83
640.59	793.1
642.01	786.98
643.42	801.73
644.84	794.13
646.26	796
647.68	780.3
649.09	772
650.51	785.16
651.93	794.43
653.35	747.22
654.76	783.58
656.18	810.5
657.6	770.29
659.02	756.06
660.44	781.37
661.85	802.87
663.27	796.46
664.69	773.26
666.11	768.89
667.52	800.1
668.94	769.1
670.36	758.04
671.78	832.35
673.19	839.09
674.61	847.02
676.03	828.8
677.45	857.85
678.86	856.34
680.28	840.5
681.7	845.37
683.12	835.98
684.53	847.83
685.95	881.5
687.37	891.86
688.79	917.39
690.2	951.66
691.62	984.76
693.04	1025.7
694.46	987.98
695.88	972.67
697.29	931.63
698.71	907.23
700.13	879.85
701.55	841.3
702.96	828.59
704.38	856.19
705.8	850.39
707.22	859.04
708.63	857.12
710.05	889.41
711.47	930.36
712.89	915.8
714.3	934.76
715.72	912.6
717.14	904.01
718.56	919.71
719.97	931.26
721.39	932.93
722.81	924.28
724.23	879.53
725.65	941.51
727.06	880.31
728.48	901.65
729.9	934.91
731.32	957.11
732.73	956.94
734.15	910.79
735.57	1005.7
736.99	983.89
738.4	975.8
739.82	957.39
741.24	934.43
742.66	920.61
744.07	910.56
745.49	870.06
746.91	928.3
748.33	887.38
749.74	878.52
751.16	902.09
752.58	918.24
754	917.23
755.42	943.98
756.83	971.93
758.25	954.81
759.67	988.65
761.09	999.26
762.5	996.55
763.92	1000.6
765.34	999.8
766.76	987.22
768.17	944.87
769.59	955.94
771.01	944.02
772.43	933.88
773.84	942.36
775.26	963.88
776.68	979.51
778.1	919.82
779.51	960.14
780.93	964.18
782.35	979.32
783.77	974.76
785.19	955.11
786.6	973.36
788.02	1041.5
789.44	1069.7
790.86	1146.7
792.27	1326.1
793.69	1660.7
795.11	2025.9
796.53	2308.4
797.94	2534.4
799.36	2774.9
800.78	2767.3
802.2	2730.6
803.61	2618
805.03	2470.2
806.45	2227.7
807.87	1869.5
809.28	1539.7
810.7	1337.4
812.12	1194.6
813.54	1079.6
814.95	1073.2
816.37	1076.2
817.79	1064.7
819.21	1070.1
820.63	1066
822.04	1114.6
823.46	1051.6
824.88	1093.8
826.3	1137.1
827.71	1156.8
829.13	1130.7
830.55	1063.1
831.97	1043.7
833.38	1092.4
834.8	1064
836.22	1089.7
837.64	1187.6
839.05	1298.4
840.47	1418.1
841.89	1557.7
843.31	1639.3
844.72	1736.9
846.14	1795.9
847.56	1811.3
848.98	1730.9
850.4	1643.8
851.81	1547.1
853.23	1398.6
854.65	1293.5
856.07	1202.9
857.48	1159.3
858.9	1099.6
860.32	1057.3
861.74	1042.6
863.15	1030.2
864.57	1020.6
865.99	1060.9
867.41	1029.8
868.82	1083.1
870.24	1080.1
871.66	1087.9
873.08	1095.9
874.49	1082.2
875.91	1057.9
877.33	1057.7
878.75	1064
880.16	1111.9
881.58	1070
883	1059.1
884.42	1064.2
885.84	1068.5
887.25	1070.5
888.67	1073.6
890.09	1088.8
891.51	1104
892.92	1076.4
894.34	1120.4
895.76	1130.6
897.18	1132.7
898.59	1152.8
900.01	1148.9
901.43	1094.1
902.85	1136.7
904.26	1138
905.68	1126.6
907.1	1105.3
908.52	1103.6
909.93	1115.9
911.35	1119.3
912.77	1108.4
914.19	1086.2
915.61	1120.7
917.02	1094.2
918.44	1094.4
919.86	1105.1
921.28	1126.8
922.69	1134.7
924.11	1111
925.53	1119.3
926.95	1191.2
928.36	1142.5
929.78	1136.3
931.2	1159.8
932.62	1158.3
934.03	1160.3
935.45	1189.1
936.87	1200.6
938.29	1180.2
939.7	1161
941.12	1182.2
942.54	1190.2
943.96	1191.7
945.38	1198
946.79	1201.1
948.21	1189.3
949.63	1168.9
951.05	1152.2
952.46	1198.2
953.88	1194.9
955.3	1175.9
956.72	1171.2
958.13	1165.3
959.55	1171.9
960.97	1194.2
962.39	1167.9
963.8	1119.4
965.22	1200.3
966.64	1169.1
968.06	1143
969.47	1168.8
970.89	1193.2
972.31	1189.3
973.73	1196.7
975.15	1233.5
976.56	1189
977.98	1222.7
979.4	1197.8
980.82	1182
982.23	1169.2
983.65	1192.5
985.07	1201.3
986.49	1180.4
987.9	1261.1
989.32	1243.4
990.74	1236.6
992.16	1267.8
993.57	1269.1
994.99	1260.9
996.41	1233.2
997.83	1212.9
999.24	1222.6
1000.6	1226.2
1002	1250.7
1003.5	1228.4
1004.9	1250.4
1006.3	1264.6
1007.7	1247.1
1009.1	1241.9
1010.5	1261.1
1012	1288
1013.4	1311.4
1014.8	1306.1
1016.2	1257.1
1017.6	1312.7
1019	1304.2
1020.5	1307.8
1021.9	1305.3
1023.3	1331.5
1024.7	1392.2
1026.1	1440.4
1027.6	1473.3
1029	1462.2
1030.4	1448.3
1031.8	1499.2
1033.2	1569.5
1034.6	1567.2
1036.1	1523.3
1037.5	1503.1
1038.9	1519.8
1040.3	1513.2
1041.7	1404.7
1043.1	1426.2
1044.6	1373.8
1046	1434.4
1047.4	1429
1048.8	1426.7
1050.2	1393.1
1051.7	1344.1
1053.1	1337.8
1054.5	1309.5
1055.9	1351.3
1057.3	1310.2
1058.7	1287.8
1060.2	1334.1
1061.6	1349.4
1063	1337.8
1064.4	1360.4
1065.8	1408.5
1067.2	1406.8
1068.7	1362.3
1070.1	1400.7
1071.5	1375.3
1072.9	1365.5
1074.3	1366.3
1075.8	1334.9
1077.2	1366.5
1078.6	1433.2
1080	1473.4
1081.4	1540.9
1082.8	1693.6
1084.3	1797
1085.7	1910.3
1087.1	2036.9
1088.5	2138.1
1089.9	2172.4
1091.3	2210
1092.8	2184.2
1094.2	2067.8
1095.6	1942.7
1097	1789
1098.4	1722.4
1099.9	1632.2
1101.3	1538.1
1102.7	1521.4
1104.1	1527.8
1105.5	1518.4
1106.9	1471.3
1108.4	1453.8
1109.8	1488
1111.2	1435.4
1112.6	1398.6
1114	1463.7
1115.4	1514.8
1116.9	1496.4
1118.3	1518.3
1119.7	1521.3
1121.1	1524.4
1122.5	1531.8
1124	1523.3
1125.4	1536.1
1126.8	1604.5
1128.2	1609.8
1129.6	1675.1
1131	1722.1
1132.5	1775.4
1133.9	1880.2
1135.3	1960.8
1136.7	2062.9
1138.1	2172.6
1139.5	2199.5
1141	2219.1
1142.4	2286.3
1143.8	2202.5
1145.2	2137.2
1146.6	2035.4
1148	1928.3
1149.5	1820.2
1150.9	1746.2
1152.3	1674.9
1153.7	1611.8
1155.1	1595.7
1156.6	1552.1
1158	1581.2
1159.4	1582.9
1160.8	1648.9
1162.2	1706.4
1163.6	1787.5
1165.1	1896.9
1166.5	1935.2
1167.9	1934.8
1169.3	1978.5
1170.7	2015
1172.1	1964.1
1173.6	1937.2
1175	1939
1176.4	1847.8
1177.8	1835.3
1179.2	1771.6
1180.7	1710.1
1182.1	1679.2
1183.5	1673.8
1184.9	1689.4
1186.3	1707.3
1187.7	1694.4
1189.2	1694.1
1190.6	1687
1192	1669.8
1193.4	1706.2
1194.8	1687.1
1196.2	1708.8
1197.7	1748.3
1199.1	1856.5
1200.5	1981.1
1201.9	2095.6
1203.3	2369.8
1204.8	2711.3
1206.2	3058.2
1207.6	3294.1
1209	3516.6
1210.4	3715.8
1211.8	3721.4
1213.3	3547.9
1214.7	3281.5
1216.1	2971.8
1217.5	2620.4
1218.9	2287.3
1220.3	2091.4
1221.8	1923.9
1223.2	1842
1224.6	1827.5
1226	1823.8
1227.4	1759
1228.9	1786
1230.3	1807.8
1231.7	1804.3
1233.1	1824
1234.5	1857.5
1235.9	1848.3
1237.4	1797.9
1238.8	1779.2
1240.2	1763.7
1241.6	1826.3
1243	1766.6
1244.4	1765.5
1245.9	1783.6
1247.3	1789.8
1248.7	1804.4
1250.1	1779
1251.5	1746.1
1253	1790.1
1254.4	1805
1255.8	1777.7
1257.2	1789.4
1258.6	1780.7
1260	1749.7
1261.5	1780.7
1262.9	1839.9
1264.3	1824.5
1265.7	1786.9
1267.1	1801.8
1268.5	1850.5
1270	1862.9
1271.4	1832.4
1272.8	1844.5
1274.2	1892.9
1275.6	1812.4
1277.1	1882.9
1278.5	1882
1279.9	1845.1
1281.3	1856.9
1282.7	1860.5
1284.1	1881.8
1285.6	1895.5
1287	1877.5
1288.4	1862
1289.8	1863.4
1291.2	1940
1292.6	1962.1
1294.1	1995.5
1295.5	1971.5
1296.9	2089.2
1298.3	2108.4
1299.7	2084.7
1301.2	2076.5
1302.6	2120.8
1304	2172.4
1305.4	2191.1
1306.8	2186.9
1308.2	2146.6
1309.7	2085
1311.1	2082.6
1312.5	2030.2
1313.9	2060.5
1315.3	2016.2
1316.7	2041.1
1318.2	2052.1
1319.6	2052
1321	2059.8
1322.4	2064.4
1323.8	2087.5
1325.3	2085.9
1326.7	2046.4
1328.1	2157.2
1329.5	2180.4
1330.9	2230.8
1332.3	2378.5
1333.8	2489.3
1335.2	2538.4
1336.6	2597.1
1338	2708.9
1339.4	2853.4
1340.8	3021
1342.3	3191.1
1343.7	3394.3
1345.1	3626.1
1346.5	3863.4
1347.9	4276.8
1349.4	4779.4
1350.8	5210.2
1352.2	5648.5
1353.6	6093.3
1355	6520.8
1356.4	6799.6
1357.9	6965.8
1359.3	7276.2
1360.7	7422.6
1362.1	7458.3
1363.5	7626.9
1364.9	7802.6
1366.4	7885.4
1367.8	8056.3
1369.2	8029.7
1370.6	7849.4
1372	7692.9
1373.5	7522.4
1374.9	6925.8
1376.3	6439.3
1377.7	5865.3
1379.1	5305.7
1380.5	4822.6
1382	4343
1383.4	3941.5
1384.8	3691
1386.2	3555.1
1387.6	3482.4
1389	3375.5
1390.5	3323.7
1391.9	3292.8
1393.3	3197.5
1394.7	3036.4
1396.1	2901
1397.5	2744.8
1399	2572.6
1400.4	2464.5
1401.8	2441.5
1403.2	2377.8
1404.6	2336.2
1406.1	2333.4
1407.5	2271.9
1408.9	2229.2
1410.3	2307.7
1411.7	2346.8
1413.1	2304.6
1414.6	2294
1416	2314.5
1417.4	2306.3
1418.8	2320
1420.2	2339.8
1421.6	2372.4
1423.1	2350.1
1424.5	2405.9
1425.9	2381.7
1427.3	2333.4
1428.7	2337.7
1430.2	2343.3
1431.6	2357.1
1433	2282.5
1434.4	2195.7
1435.8	2257.1
1437.2	2256.9
1438.7	2325.8
1440.1	2278.9
1441.5	2252.6
1442.9	2268.5
1444.3	2326.9
1445.7	2401.2
1447.2	2429.8
1448.6	2445.3
1450	2477.9
1451.4	2519.7
1452.8	2525.4
1454.3	2506.9
1455.7	2515
1457.1	2489.2
1458.5	2498.8
1459.9	2453.8
1461.3	2403.9
1462.8	2496.8
1464.2	2516.7
1465.6	2544.7
1467	2610.1
1468.4	2529.3
1469.8	2516.3
1471.3	2527.9
1472.7	2537.6
1474.1	2493.8
1475.5	2481.1
1476.9	2480.6
1478.4	2429.1
1479.8	2420
1481.2	2404.2
1482.6	2350.5
1484	2371.6
1485.4	2343
1486.9	2407.5
1488.3	2291.1
1489.7	2289.2
1491.1	2276.5
1492.5	2340.4
1493.9	2279
1495.4	2271.1
1496.8	2287.6
1498.2	2285.2
1499.6	2338.9
1501	2357.8
1502.5	2344
1503.9	2329.8
1505.3	2311.7
1506.7	2385.1
1508.1	2397.9
1509.5	2432.7
1511	2447.6
1512.4	2514.3
1513.8	2449.5
1515.2	2438.8
1516.6	2534.3
1518	2609.9
1519.5	2814.7
1520.9	2963.9
1522.3	3123.4
1523.7	3320.4
1525.1	3576.6
1526.6	3771.7
1528	3869.7
1529.4	3934.8
1530.8	3967.9
1532.2	3964.3
1533.6	3953.3
1535.1	3880.9
1536.5	3747
1537.9	3704.9
1539.3	3648.7
1540.7	3592.4
1542.1	3619.3
1543.6	3613.6
1545	3536.3
1546.4	3480.6
1547.8	3486.8
1549.2	3480.7
1550.7	3424.4
1552.1	3380
1553.5	3373.4
1554.9	3259.7
1556.3	3177.6
1557.7	3134.6
1559.2	3061.2
1560.6	2935.9
1562	2773.7
1563.4	2713.9
1564.8	2701.9
1566.2	2627
1567.7	2592.8
1569.1	2591.1
1570.5	2564.5
1571.9	2621.5
1573.3	2718.5
1574.8	2751.3
1576.2	2833
1577.6	3055.5
1579	3181
1580.4	3340.3
1581.8	3551.4
1583.3	3663
1584.7	3755.3
1586.1	3794.3
1587.5	3750.6
1588.9	3617.1
1590.3	3396.1
1591.8	3173.4
1593.2	2986.9
1594.6	2814.3
1596	2708.1
1597.4	2657.4
1598.9	2642.9
1600.3	2596.6
1601.7	2544
1603.1	2544.1
1604.5	2636.8
1605.9	2589.2
1607.4	2586.4
1608.8	2605.6
1610.2	2592.4
1611.6	2622.7
1613	2641.1
1614.4	2647
1615.9	2739.7
1617.3	2799.8
1618.7	2807.4
1620.1	2802.4
1621.5	2813.5
1623	2823.4
1624.4	2807.2
1625.8	2767.3
1627.2	2666.5
1628.6	2562.3
1630	2564.8
1631.5	2570.2
1632.9	2557.4
1634.3	2563.8
1635.7	2570.3
1637.1	2467
1638.5	2530.3
1640	2568.9
1641.4	2540.2
1642.8	2480.7
1644.2	2541.8
1645.6	2542.5
1647	2492.5
1648.5	2551.7
1649.9	2517.6
1651.3	2574.3
1652.7	2547.4
1654.1	2572.4
1655.6	2549.7
1657	2526.9
1658.4	2518
1659.8	2514.5
1661.2	2511.3
1662.6	2512.1
1664.1	2540.2
1665.5	2540.3
1666.9	2541.4
1668.3	2560.2
1669.7	2527.2
1671.1	2561.1
1672.6	2552.3
1674	2562.7
1675.4	2585.4
1676.8	2573.6
1678.2	2479.3
1679.7	2543
1681.1	2498.6
1682.5	2589.8
1683.9	2555.8
1685.3	2627.3
1686.7	2537.6
1688.2	2508.4
1689.6	2628.7
1691	2561.4
1692.4	2621
1693.8	2624
1695.2	2638.5
1696.7	2630.1
1698.1	2602.6
1699.5	2549.5
1700.9	2576.9
1702.3	2637.1
1703.8	2646.2
1705.2	2603.7
1706.6	2567.1
1708	2632
1709.4	2629.9
1710.8	2587.4
1712.3	2643.6
1713.7	2661.7
1715.1	2651.6
1716.5	2593.9
1717.9	2586.7
1719.3	2630.4
1720.8	2619
1722.2	2643.4
1723.6	2608.3
1725	2617.1
1726.4	2624.6
1727.9	2620.5
1729.3	2594.4
1730.7	2673.4
1732.1	2618.2
1733.5	2708.8
1734.9	2667.4
1736.4	2632.6
1737.8	2657.5
1739.2	2742.9
1740.6	2597.1
1742	2670.1
1743.4	2728.5
1744.9	2731.7
1746.3	2702.4
1747.7	2697.9
1749.1	2741.3
1750.5	2702.1
1752	2714.7
1753.4	2707.9
1754.8	2685.3
1756.2	2723.4
1757.6	2732.6
1759	2726.5
1760.5	2718.1
1761.9	2723.4
1763.3	2715.5
1764.7	2685.6
1766.1	2714.5
1767.5	2731.8
1769	2695.3
1770.4	2690.1
1771.8	2702.8
1773.2	2760.2
1774.6	2831.7
1776.1	2779.8
1777.5	2699.1
1778.9	2808.4
1780.3	2731.1
1781.7	2776.9
1783.1	2766.3
1784.6	2797.6
1786	2817.6
1787.4	2812.7
1788.8	2820.9
1790.2	2849.9
1791.6	2796.2
1793.1	2835.8
1794.5	2824.5
1795.9	2815.6
1797.3	2820.6
1798.7	2858.1
1800.2	2865.4
1801.6	2855.7
1803	2804.3
1804.4	2802.8
1805.8	2811.3
1807.2	2791.9
1808.7	2886.7
1810.1	2843.5
1811.5	2891.9
1812.9	2838
1814.3	2799.7
1815.7	2824.3
1817.2	2828.8
1818.6	2839.5
1820	2907.1
1821.4	2933.4
1822.8	2871.8
1824.3	2897.5
1825.7	2864.4
1827.1	2909
1828.5	2922.7
1829.9	2892.8
1831.3	2843.1
1832.8	2875.5
1834.2	2924
1835.6	2924.8
1837	2977.2
1838.4	3008.5
1839.8	3014.3
1841.3	3022
1842.7	2990.1
1844.1	2948.8
1845.5	2926.5
1846.9	2934.9
1848.4	2932.3
1849.8	2940.2
1851.2	2944
1852.6	2952.6
1854	2999.9
1855.4	3016.3
1856.9	2986.4
1858.3	2949
1859.7	2981
1861.1	2975
1862.5	2965.5
1863.9	3019.7
1865.4	3018.8
1866.8	3012.1
1868.2	2994.5
1869.6	3002.2
1871	3034.9
1872.4	3050.5
1873.9	3059.7
1875.3	3032.6
1876.7	2996.7
1878.1	3069.1
1879.5	3023.7
1881	2969
1882.4	3089.1
1883.8	3053.3
1885.2	3042.2
1886.6	3042.9
1888	3091.6
1889.5	3127.2
1890.9	3026.7
1892.3	3102.9
1893.7	3057.5
1895.1	3038.9
1896.5	2982.5
1898	3014
1899.4	3149.4
1900.8	3074.8
1902.2	2994.6
1903.6	3049.2
1905.1	3110.9
1906.5	3151.8
1907.9	3100.6
1909.3	3078.7
1910.7	3053.5
1912.1	3025.7
1913.6	3113.5
1915	3150.9
1916.4	3046.2
1917.8	3086.6
1919.2	3146.1
1920.6	3145.7
1922.1	3136.7
1923.5	3168.7
1924.9	3151.7
1926.3	3178.2
1927.7	3124.1
1929.2	3176.1
1930.6	3219
1932	3190.1
1933.4	3230.4
1934.8	3150.9
1936.2	3219.3
1937.7	3136.4
1939.1	3187.1
1940.5	3142.5
1941.9	3199.8
1943.3	3197.4
1944.7	3129.2
1946.2	3131.6
1947.6	3250.9
1949	3213.5
1950.4	3273.7
1951.8	3112
1953.3	3178.9
1954.7	3248.4
1956.1	3212.4
1957.5	3205.3
1958.9	3228.5
1960.3	3348.4
1961.8	3194.1
1963.2	3255.1
1964.6	3245.8
1966	3251.7
1967.4	3209.9
1968.8	3247
1970.3	3276
1971.7	3328.6
1973.1	3360.6
1974.5	3384.7
1975.9	3278.7
1977.4	3280.9
1978.8	3265
1980.2	3367.2
1981.6	3348.7
1983	3281.7
1984.4	3362.1
1985.9	3359.2
1987.3	3274.7
1988.7	3318.3
1990.1	3332.7
1991.5	3427.5
1992.9	3393.6
1994.4	3329.5
1995.8	3311.3
1997.2	3314.7
1998.6	3388.7
2000	3338.8
2001.5	3370.3
2002.9	3333.3
2004.3	3370.5
2005.7	3409.2
2007.1	3401.3
2008.5	3375.2
2010	3373.5
2011.4	3403.7
2012.8	3372.7
2014.2	3369.8
2015.6	3404
2017	3448.6
2018.5	3455.8
2019.9	3412.7
2021.3	3423.1
2022.7	3425.7
2024.1	3438.1
2025.6	3449.5
2027	3426.1
2028.4	3422.6
2029.8	3447.9
2031.2	3453.9
2032.6	3443.5
2034.1	3475.8
2035.5	3481.3
2036.9	3457.1
2038.3	3460.1
2039.7	3468.4
2041.1	3469.7
2042.6	3475.8
2044	3456.3
2045.4	3508.1
2046.8	3510
2048.2	3465.1
2049.7	3520.9
2051.1	3618.4
2052.5	3517.3
2053.9	3550.1
2055.3	3596.7
2056.7	3550.8
2058.2	3494.8
2059.6	3567.2
2061	3611.8
2062.4	3608.7
2063.8	3568.6
2065.2	3627.5
2066.7	3576
2068.1	3597.1
2069.5	3608.8
2070.9	3520.9
2072.3	3660.7
2073.8	3608
2075.2	3491.9
2076.6	3529.4
2078	3536.2
2079.4	3559.8
2080.8	3568.1
2082.3	3558.3
2083.7	3576.7
2085.1	3528.4
2086.5	3591.9
2087.9	3611.1
2089.3	3595
2090.8	3583.9
2092.2	3533.1
2093.6	3598.2
2095	3652.1
2096.4	3562.2
2097.9	3646
2099.3	3649.8
2100.7	3657.1
2102.1	3628.8
2103.5	3604.2
2104.9	3636.8
2106.4	3591.9
2107.8	3620.2
2109.2	3650.3
2110.6	3692.9
2112	3642.1
2113.4	3668.3
2114.9	3709.5
2116.3	3691.6
2117.7	3683.2
2119.1	3732
2120.5	3749.2
2122	3719.7
2123.4	3687.9
2124.8	3638.9
2126.2	3675.7
2127.6	3697.1
2129	3700.1
2130.5	3728
2131.9	3718.6
2133.3	3725.9
2134.7	3760.8
2136.1	3662
2137.5	3682.9
2139	3754.5
2140.4	3714.3
2141.8	3742.1
2143.2	3778.1
2144.6	3748
2146.1	3724.8
2147.5	3731.9
2148.9	3761.8
2150.3	3808.1
2151.7	3806
2153.1	3778.5
2154.6	3674
2156	3748.8
2157.4	3803.4
2158.8	3810.7
2160.2	3862.3
2161.6	3769.1
2163.1	3822.1
2164.5	3792.6
2165.9	3790.8
2167.3	3795.5
2168.7	3777.6
2170.2	3844
2171.6	3866.8
2173	3793.2
2174.4	3824.1
2175.8	3879.2
2177.2	3858.2
2178.7	3834.8
2180.1	3860.6
2181.5	3904.9
2182.9	3907.2
2184.3	3884.7
2185.7	3821.7
2187.2	3892.4
2188.6	3886.1
2190	3905.9
2191.4	3911.9
2192.8	3945.1
2194.2	3951
2195.7	3813
2197.1	3894.2
2198.5	3874.1
2199.9	3937.2
2201.3	3953.7
2202.8	3928
2204.2	3969.6
2205.6	3943
2207	3959.5
2208.4	3980.1
2209.8	3949.7
2211.3	3945.8
2212.7	3989.1
2214.1	4016.8
2215.5	3970.8
2216.9	3960.8
2218.3	4054.1
2219.8	4015.3
2221.2	3974.8
2222.6	4015.9
2224	3961.3
2225.4	4030.1
2226.9	4011.2
2228.3	3827.8
2229.7	4045.5
2231.1	4051
2232.5	4121.1
2233.9	4154.1
2235.4	4045.3
2236.8	4036.3
2238.2	4096.3
2239.6	4058.2
2241	4106.7
2242.4	4197.5
2243.9	4175.8
2245.3	4153.3
2246.7	4098.3
2248.1	4113.2
2249.5	4122.8
2251	4126.1
2252.4	4159.2
2253.8	4186.5
2255.2	4096
2256.6	4133.2
2258	4170.8
2259.5	4187.8
2260.9	4195.7
2262.3	4176.8
2263.7	4191.7
2265.1	4122
2266.5	4173.9
2268	4220.2
2269.4	4242
2270.8	4233.1
2272.2	4218.1
2273.6	4174.2
2275.1	4179.9
2276.5	4188.3
2277.9	4245.2
2279.3	4225
2280.7	4253.3
2282.1	4273.6
2283.6	4241.7
2285	4268.3
2286.4	4244.6
2287.8	4289.4
2289.2	4245.6
2290.6	4228.9
2292.1	4234.7
2293.5	4320.1
2294.9	4255.8
2296.3	4190.3
2297.7	4217.7
2299.2	4289.1
2300.6	4306.6
2302	4454.9
2303.4	4393.6
2304.8	4302.2
2306.2	4363.6
2307.7	4384.2
2309.1	4357.3
2310.5	4381.3
2311.9	4314.8
2313.3	4318.5
2314.7	4319.8
2316.2	4269.5
2317.6	4208.5
2319	4298.1
2320.4	4409
2321.8	4389.1
2323.3	4432.3
2324.7	4459.5
2326.1	4342.8
2327.5	4433.7
2328.9	4392.5
2330.3	4392.8
2331.8	4485
2333.2	4406.4
2334.6	4342.2
2336	4349.5
2337.4	4401.2
2338.8	4382.5
2340.3	4448
2341.7	4522.5
2343.1	4429.1
2344.5	4450
2345.9	4509.7
2347.4	4478.7
2348.8	4520
2350.2	4501.8
2351.6	4416.6
2353	4490.2
2354.4	4477.1
2355.9	4413.6
2357.3	4467.1
2358.7	4432.5
2360.1	4556.6
2361.5	4396.1
2362.9	4381.7
2364.4	4516.8
2365.8	4544.7
2367.2	4517.2
2368.6	4451.6
2370	4478
2371.5	4486.3
2372.9	4529.5
2374.3	4495.3
2375.7	4429.6
2377.1	4552.2
2378.5	4642
2380	4622.4
2381.4	4578.9
2382.8	4672.1
2384.2	4653.5
2385.6	4598.1
2387	4561.8
2388.5	4534
2389.9	4590.5
2391.3	4578.7
2392.7	4620.5
2394.1	4589.8
2395.6	4622.7
2397	4585.6
2398.4	4652.1
2399.8	4669.4
2401.2	4691.6
2402.6	4627.7
2404.1	4615
2405.5	4776.9
2406.9	4692.7
2408.3	4692.4
2409.7	4696
2411.1	4629.8
2412.6	4668.1
2414	4682.6
2415.4	4701.4
2416.8	4678.1
2418.2	4699.8
2419.6	4639.8
2421.1	4727
2422.5	4685.8
2423.9	4594.5
2425.3	4624.7
2426.7	4621.3
2428.2	4541.4
2429.6	4751.9
2431	4716.8
2432.4	4760.8
2433.8	4772.9
2435.2	4677.8
2436.7	4702.1
2438.1	4650.8
2439.5	4689.5
2440.9	4803
2442.3	4841.2
2443.7	4818.9
2445.2	4774
2446.6	4778.2
2448	4775.3
2449.4	4776.2
2450.8	4802.9
2452.3	4859.9
2453.7	4756.9
2455.1	4781.5
2456.5	4774.9
2457.9	4912.7
2459.3	4819.3
2460.8	4743.6
2462.2	4846.1
2463.6	4867.4
2465	4914.5
2466.4	4850.5
2467.8	4865.8
2469.3	4802.7
2470.7	4738.7
2472.1	4821.1
2473.5	4907.1
2474.9	4975.8
2476.4	4861.6
2477.8	4878.7
2479.2	4950.5
2480.6	4988.4
2482	4886.3
2483.4	4903.8
2484.9	4916
2486.3	4974.7
2487.7	4925
2489.1	4946.3
2490.5	5007.7
2491.9	5077.9
2493.4	4995.4
2494.8	4976.9
2496.2	4985.8
2497.6	5042.8
2499	4992.3
2500.5	4960.6
2501.9	5006.3
2503.3	4945.7
2504.7	4987.5
2506.1	4995.1
2507.5	4967.5
2509	5024.6
2510.4	4934.2
2511.8	5024.8
2513.2	5050.6
2514.6	5001.1
2516	4988.3
2517.5	5049
2518.9	5031.5
2520.3	5029
2521.7	5068
2523.1	4956.5
2524.6	5038.3
2526	4917.7
2527.4	5055.8
2528.8	5025.8
2530.2	5057.6
2531.6	5055.7
2533.1	5177.6
2534.5	5098.1
2535.9	5075.3
2537.3	5134.5
2538.7	5142.2
2540.1	5176.3
2541.6	5008
2543	5116.8
2544.4	5080.4
2545.8	5030.3
2547.2	4983.5
2548.7	5167.3
2550.1	5085.8
2551.5	5079.9
2552.9	5171.3
2554.3	5197.2
2555.7	5183.9
2557.2	5156.8
2558.6	5043.9
2560	5131.1
2561.4	5146.8
2562.8	5192.8
2564.2	5111.9
2565.7	5210.4
2567.1	5198.5
2568.5	5120.3
2569.9	5162.9
2571.3	5194.5
2572.8	5226.2
2574.2	5297.6
2575.6	5235.1
2577	5239.5
2578.4	5252.3
2579.8	5138
2581.3	5313.5
2582.7	5342.3
2584.1	5260.6
2585.5	5208.5
2586.9	5269.3
2588.3	5263.5
2589.8	5361.1
2591.2	5376.3
2592.6	5334.8
2594	5345
2595.4	5413.7
2596.9	5463
2598.3	5506.1
2599.7	5488.6
2601.1	5492
2602.5	5438.3
2603.9	5498.3
2605.4	5515.3
2606.8	5482
2608.2	5532.1
2609.6	5484
2611	5380.5
2612.4	5383.2
2613.9	5514.5
2615.3	5397.5
2616.7	5234
2618.1	5314.6
2619.5	5353.7
2621	5455.1
2622.4	5371.3
2623.8	5267.5
2625.2	5245.4
2626.6	5383.2
2628	5414.5
2629.5	5493
2630.9	5483.5
2632.3	5399.9
2633.7	5363.2
2635.1	5376.4
2636.5	5382.9
2638	5377.2
2639.4	5370.1
2640.8	5455.8
2642.2	5378.7
2643.6	5483.3
2645.1	5451.5
2646.5	5439.7
2647.9	5355.8
2649.3	5352.4
2650.7	5390.1
2652.1	5365
2653.6	5393.9
2655	5446.2
2656.4	5371.6
2657.8	5334.8
2659.2	5363.3
2660.6	5411
2662.1	5441.6
2663.5	5484.2
2664.9	5459.9
2666.3	5429.9
2667.7	5386.9
2669.1	5471.7
2670.6	5378.4
2672	5463.5
2673.4	5442.3
2674.8	5563.1
2676.2	5532.3
2677.7	5418.8
2679.1	5554
2680.5	5619.5
2681.9	5689.5
2683.3	5662.4
2684.7	5541.5
2686.2	5681.4
2687.6	5563.9
2689	5671.1
2690.4	5696.9
2691.8	5678.2
2693.2	5612
2694.7	5676.3
2696.1	5740.3
2697.5	5675.8
2698.9	5806.9
2700.3	5810.4
2701.8	5721.6
2703.2	5690.1
2704.6	5818.7
2706	5864.2
2707.4	5826
2708.8	5755.7
2710.3	5754.7
2711.7	5702.4
2713.1	5840.1
2714.5	5648.3
2715.9	5653.1
2717.3	5631.9
2718.8	5673.2
2720.2	5762.6
2721.6	5627.3
2723	5675.3
2724.4	5825.4
2725.9	5757.9
2727.3	5792.9
2728.7	5650.7
2730.1	5698
2731.5	5723.9
2732.9	5724
2734.4	5724
2735.8	5716.6
2737.2	5681.1
2738.6	5801.4
2740	5773.1
2741.4	5846.8
2742.9	5861.2
2744.3	5785.2
2745.7	5758.4
2747.1	5857.4
2748.5	5892.2
2750	5822.4
2751.4	5808.3
2752.8	5813.8
2754.2	5770.3
2755.6	5833.5
2757	5844.2
2758.5	5913.5
2759.9	5968.3
2761.3	5852.1
2762.7	5849.5
2764.1	5894
2765.5	6022.7
2767	5970.1
2768.4	5943.5
2769.8	5928.9
2771.2	5934.2
2772.6	5850.3
2774.1	5890.4
2775.5	5916.7
2776.9	5866.7
2778.3	5906.4
2779.7	5970.4
2781.1	5895.5
2782.6	5946.9
2784	6077.7
2785.4	5964
2786.8	5943.8
2788.2	5943.5
2789.6	6007.2
2791.1	5966
2792.5	6037.4
2793.9	5995.1
2795.3	5923.9
2796.7	6024.9
2798.2	6017.7
2799.6	6047.2
2801	5868.6
2802.4	5866.5
2803.8	5942.7
2805.2	6100.9
2806.7	6035.7
2808.1	5994.3
2809.5	6070.4
2810.9	6113
2812.3	6124.7
2813.7	6036.2
2815.2	6020
2816.6	6014
2818	6111.8
2819.4	6047.6
2820.8	6108.1
2822.3	6037
2823.7	6029
2825.1	6031.1
2826.5	6051.3
2827.9	6202.9
2829.3	6186.9
2830.8	6117.2
2832.2	6188.6
2833.6	6134.5
2835	6236.1
2836.4	6255.8
2837.8	6135.6
2839.3	6168
2840.7	6179.2
2842.1	6249.7
2843.5	6205.1
2844.9	6176.1
2846.4	6278.6
2847.8	6138.9
2849.2	6274.1
2850.6	6203.9
2852	6269.1
2853.4	6227.4
2854.9	6228.3
2856.3	6229
2857.7	6353.9
2859.1	6272.5
2860.5	6172
2861.9	6271
2863.4	6279.1
2864.8	6278.6
2866.2	6183.8
2867.6	6183.6
2869	6374.1
2870.5	6444.6
2871.9	6307.9
2873.3	6372.3
2874.7	6303.3
2876.1	6467
2877.5	6397.5
2879	6554
2880.4	6475
2881.8	6567.1
2883.2	6518.5
2884.6	6436
2886	6494.5
2887.5	6552.4
2888.9	6568.7
2890.3	6550.8
2891.7	6603.1
2893.1	6494.5
2894.6	6501.5
2896	6519.4
2897.4	6499.2
2898.8	6444.1
2900.2	6396.4
2901.6	6552.2
2903.1	6454.1
2904.5	6606.5
2905.9	6577
2907.3	6578.6
2908.7	6611
2910.1	6620.6
2911.6	6668.3
2913	6840.5
2914.4	6934.3
2915.8	6851.6
2917.2	6990
2918.6	6877.9
2920.1	6766.2
2921.5	6891.5
2922.9	6904.9
2924.3	6917.4
2925.7	7038.2
2927.2	7070.4
2928.6	7162.7
2930	7200.1
2931.4	7202.1
2932.8	7231
2934.2	7322.9
2935.7	7523.2
2937.1	7692.6
2938.5	7757.1
2939.9	7977.5
2941.3	8401.2
2942.7	8763.5
2944.2	9212.5
2945.6	9641.1
2947	10120
2948.4	10574
2949.8	10865
2951.3	10802
2952.7	10762
2954.1	10241
2955.5	9834.8
2956.9	9357.4
2958.3	8788.3
2959.8	8340.2
2961.2	8067.4
2962.6	7793
2964	7593.6
2965.4	7439
2966.8	7378.9
2968.3	7235
2969.7	7223.2
2971.1	7241.1
2972.5	7253.2
2973.9	7213.1
2975.4	7217.7
2976.8	7226
2978.2	7125.3
2979.6	7124
2981	7230.4
2982.4	7183.1
2983.9	7264.9
2985.3	7337.1
2986.7	7411.5
2988.1	7586.6
2989.5	7734.5
2990.9	7790.8
2992.4	7999.8
2993.8	7874.8
2995.2	7974
2996.6	8074.9
2998	8043.4
2999.5	7751.9
3000.9	7868.9
3002.3	7593.9
3003.7	7634
3005.1	7437.9
3006.5	7479.4
3008	7461.5
3009.4	7422.7
3010.8	7443.5
3012.2	7292.1
3013.6	7321.2
3015	7410.2
3016.5	7357.9
3017.9	7386.9
3019.3	7467.7
3020.7	7604.9
3022.1	7722
3023.6	7875.7
3025	7944.2
3026.4	8059.9
3027.8	8155.6
3029.2	8188.7
3030.6	8170.1
3032.1	8195.6
3033.5	8276.6
3034.9	8218.2
3036.3	8140
3037.7	8078.1
3039.1	8039
3040.6	8028.6
3042	7898.9
3043.4	7845.7
3044.8	7776.4
3046.2	7813.6
3047.7	7863
3049.1	7870.4
3050.5	7871.2
3051.9	7918
3053.3	7902
3054.7	8039.1
3056.2	8120.8
3057.6	8044.7
3059	8175.6
3060.4	8171.8
3061.8	8291.7
3063.2	8344
3064.7	8207.7
3066.1	8388.9
3067.5	8522.2
3068.9	8411
3070.3	8540.7
3071.8	8687.1
3073.2	8907.9
3074.6	9228.2
3076	9528.4
3077.4	10078
3078.8	10814
3080.3	11512
3081.7	12093
3083.1	12612
3084.5	13008
3085.9	12879
3087.3	12539
3088.8	11899
3090.2	11524
3091.6	11239
3093	10766
3094.4	10369
3095.9	10136
3097.3	9946
3098.7	9865.3
3100.1	9820.8
3101.5	9726.5
3102.9	9668
3104.4	9694.8
3105.8	9599.5
3107.2	9610
3108.6	9288.3
3110	9285.3
3111.4	9093.8
3112.9	8903.2
3114.3	8638.6
3115.7	8505
3117.1	8338.4
3118.5	8354.7
3120	8295
3121.4	8190.9
3122.8	8248.2
3124.2	8149
3125.6	8107.6
3127	8197.7
3128.5	7868.3
3129.9	7971.3
3131.3	8086.8
3132.7	8134.9
3134.1	7999.4
3135.5	8075.6
3137	8100.6
3138.4	8080.7
3139.8	8093.2
3141.2	8151.3
3142.6	8088.1
3144	8202.1
3145.5	8192.5
3146.9	8139
3148.3	8319.4
3149.7	8293.9
3151.1	8242.2
3152.6	8314.9
3154	8455.1
3155.4	8440.7
3156.8	8374.6
3158.2	8612.8
3159.6	8596.2
3161.1	8498
3162.5	8512.2
3163.9	8566.6
3165.3	8465.8
3166.7	8378.4
3168.1	8395.3
3169.6	8315.9
3171	8362.8
3172.4	8398.6
3173.8	8166.8
3175.2	8274.6
3176.7	8281
3178.1	8252.7
3179.5	8110.4
3180.9	8164.8
3182.3	8205.6
3183.7	8365.4
3185.2	8201
3186.6	8228.2
3188	8417.5
3189.4	8443.1
3190.8	8324.5
3192.2	8419.5
3193.7	8475.5
3195.1	8353.9
3196.5	8277.2
3197.9	8282.9
3199.3	8482
3200.8	8477.5
3202.2	8411.9
3203.6	8451.5
3205	8454.8
3206.4	8525.2
3207.8	8546.8
3209.3	8512.2
3210.7	8516.1
3212.1	8647
3213.5	8501
3214.9	8516.9
3216.3	8635.1
3217.8	8629.4
3219.2	8653.9
3220.6	8566.3
3222	8661.9
3223.4	8841.6
3224.9	8828.7
3226.3	8777.8
3227.7	8860.3
3229.1	8725.2
3230.5	8805.4
3231.9	8832.7
3233.4	8727.7
3234.8	8881.4
3236.2	8984.5
3237.6	8943.3
3239	8783.2
3240.4	8820.3
3241.9	8783.1
3243.3	8893.3
3244.7	8920.4
3246.1	8800.6
3247.5	8986.8
3249	8952.9
3250.4	9002.3
3251.8	8915.6
3253.2	9138.4
3254.6	9052.4
3256	8992.5
3257.5	9150.5
3258.9	8987.5
3260.3	9088.4
3261.7	9203.7
3263.1	9224.1
3264.5	9195.4
3266	9194.5
3267.4	9314.1
3268.8	9248.3
3270.2	9284.9
3271.6	9306.9
3273.1	9269.9
3274.5	9258.4
3275.9	9313.6
3277.3	9378.2
3278.7	9435.5
3280.1	9519.7
3281.6	9341.4
3283	9376.3
3284.4	9359.6
3285.8	9513.1
3287.2	9479.2
3288.6	9508.9
3290.1	9492.3
3291.5	9484.4
3292.9	9485.9
3294.3	9549.8
3295.7	9450.5
3297.2	9684.6
3298.6	9632
3300	9721.2
3301.4	9742
3302.8	9805.3
3304.2	9762.6
3305.7	9755.9
3307.1	9766.8
3308.5	9669.5
3309.9	9810.2
3311.3	9841.5
3312.7	9881.1
3314.2	9949.6
3315.6	9974.4
3317	10013
3318.4	9977.2
3319.8	9971.6
3321.3	10116
3322.7	10000
3324.1	10065
3325.5	10030
3326.9	10176
3328.3	10114
3329.8	10157
3331.2	10083
3332.6	10055
3334	10188
3335.4	10184
3336.8	10335
3338.3	10238
3339.7	10286
3341.1	10379
3342.5	10348
3343.9	10443
3345.4	10161
3346.8	10565
3348.2	10326
3349.6	10442
3351	10468
3352.4	10550
3353.9	10604
3355.3	10653
3356.7	10710
3358.1	10556
3359.5	10659
3360.9	10635
3362.4	10757
3363.8	10619
3365.2	10721
3366.6	10842
3368	10727
3369.5	10808
3370.9	10892
3372.3	11020
3373.7	10881
3375.1	10837
3376.5	10906
3378	11110
3379.4	11111
3380.8	10999
3382.2	11091
3383.6	11183
3385	11143
3386.5	11113
3387.9	11143
3389.3	11116
3390.7	11301
3392.1	11367
3393.5	11205
3395	11252
3396.4	11342
3397.8	11414
3399.2	11543
3400.6	11573
3402.1	11474
3403.5	11573
3404.9	11610
3406.3	11344
3407.7	11508
3409.1	11605
3410.6	11642
3412	11630
3413.4	11745
3414.8	11797
3416.2	11886
3417.6	11761
3419.1	11972
3420.5	11975
3421.9	12131
3423.3	11951
3424.7	12026
3426.2	12008
3427.6	12032
3429	12209
3430.4	11990
3431.8	12001
3433.2	12207
3434.7	12200
3436.1	12266
3437.5	12319
3438.9	12227
3440.3	12312
3441.7	12479
3443.2	12375
3444.6	12497
3446	12432
3447.4	12430
3448.8	12645
3450.3	12696
3451.7	12549
3453.1	12682
3454.5	12735
3455.9	12917
3457.3	12784
3458.8	12873
3460.2	12880
3461.6	13018
3463	12846
3464.4	12924
3465.8	13052
3467.3	13130
3468.7	13012
3470.1	13019
3471.5	13112
3472.9	13170
3474.4	13310
3475.8	13241
3477.2	13376
3478.6	13231
3480	13265
3481.4	13534
3482.9	13498
3484.3	13666
3485.7	13613
3487.1	13646
3488.5	13577
3489.9	13647
3491.4	13748
3492.8	13756
3494.2	13687
3495.6	13942
3497	13852
3498.5	13911
3499.9	13961
