199.44	3018.3
200.86	2744.3
202.28	2554.8
203.69	2390.5
205.11	2250.6
206.53	2161.5
207.95	2040.4
209.36	1947.1
210.78	1879.1
212.2	1808.8
213.62	1733.7
215.04	1741
216.45	1754.9
217.87	1797.8
219.29	1845.7
220.71	1951
222.12	2236.6
223.54	2558.3
224.96	2897.3
226.38	3234.8
227.79	3715.6
229.21	5355.5
230.63	12770
232.05	7457.4
233.46	4582.2
234.88	3878.6
236.3	3668.5
237.72	3308.7
239.14	2895.8
240.55	2489.7
241.97	2109.6
243.39	1808.6
244.81	1630.6
246.22	1495.2
247.64	1399.8
249.06	1318.7
250.48	1262.8
251.89	1238.2
253.31	1233.5
254.73	1169.9
256.15	1162.6
257.56	1162.5
258.98	1161.1
260.4	1173.3
261.82	1204.2
263.24	1242.6
264.65	1274.7
266.07	1280.7
267.49	1290.4
268.91	1399.9
270.32	1448.7
271.74	1560.7
273.16	1697.2
274.58	1844.5
275.99	2007.5
277.41	2216.7
278.83	2422.9
280.25	2549
281.66	2620.3
283.08	2657.9
284.5	2659.3
285.92	2580
287.34	2508.6
288.75	2354.5
290.17	2171.8
291.59	2013.7
293.01	1787.7
294.42	1639.2
295.84	1499.4
297.26	1373.8
298.68	1275.8
300.09	1217.8
301.51	1196.6
302.93	1168.9
304.35	1178.5
305.76	1209
307.18	1256
308.6	1351.1
310.02	1467.3
311.44	1470.9
312.85	1505.9
314.27	1582
315.69	1647.3
317.11	1653.6
318.52	1651.8
319.94	1618.8
321.36	1593.5
322.78	1552.2
324.19	1435.1
325.61	1298.6
327.03	1193.8
328.45	1132
329.86	1069.5
331.28	1022.8
332.7	1085.2
334.12	1030.1
335.54	1033.8
336.95	1050.4
338.37	1061.5
339.79	1068.1
341.21	1091.2
342.62	1149.9
344.04	1137.9
345.46	1185.7
346.88	1270.2
348.29	1321.2
349.71	1427.5
351.13	1586.2
352.55	1828.8
353.96	2116.6
355.38	2470.4
356.8	2934.6
358.22	3387
359.64	3698.6
361.05	4046.1
362.47	4330.3
363.89	4482.3
365.31	4517.4
366.72	4382.4
368.14	4251.6
369.56	3852.9
370.98	3325
372.39	2798.7
373.81	2239.9
375.23	1740.2
376.65	1464.3
378.06	1273.7
379.48	1127.6
380.9	1028.2
382.32	998.69
383.74	1012.2
385.15	946.86
386.57	919.92
387.99	929.81
389.41	939.7
390.82	949.58
392.24	957.06
393.66	917.16
395.08	906.63
396.49	944.91
397.91	1006.9
399.33	1035.1
400.75	1113.7
402.16	1150.4
403.58	1230.2
405	1352
406.42	1486.1
407.84	1663.5
409.25	1912.6
410.67	2144.8
412.09	2330.9
413.51	2515.1
414.92	2720.6
416.34	2800.6
417.76	2889
419.18	2890.5
420.59	2844.6
422.01	2747.5
423.43	2593
424.85	2442.4
426.27	2338.6
427.68	2322
429.1	2378.3
430.52	2489.9
431.94	2635.4
433.35	2787.1
434.77	3006.9
436.19	3085.6
437.61	3148.6
439.02	3156
440.44	3041.4
441.86	2870.9
443.28	2741.9
444.69	2461.6
446.11	2142.9
447.53	1844.6
448.95	1609.1
450.37	1485.6
451.78	1303.2
453.2	1163.6
454.62	1114.3
456.04	1103.9
457.45	1080.6
458.87	1048.9
460.29	998.31
461.71	1033.7
463.12	1038.2
464.54	999.98
465.96	968.64
467.38	1008.5
468.79	995.03
470.21	981.54
471.63	959.37
473.05	966.2
474.47	981.38
475.88	942.48
477.3	881.78
478.72	891.62
480.14	875.39
481.55	885.75
482.97	915.78
484.39	911.54
485.81	835.78
487.22	863.31
488.64	887.47
490.06	898.14
491.48	891.13
492.89	867.1
494.31	833.19
495.73	828.33
497.15	834.98
498.57	840.61
499.98	846.8
501.4	849.19
502.82	835.72
504.24	837.11
505.65	825.04
507.07	814.08
508.49	808.77
509.91	810.16
511.32	812.67
512.74	792.76
514.16	828.2
515.58	811.63
516.99	797.58
518.41	814.58
519.83	847.24
521.25	838.1
522.67	813.13
524.08	797.71
525.5	791.48
526.92	807.57
528.34	828.12
529.75	809.79
531.17	794.84
532.59	746.25
534.01	780.14
535.42	804.76
536.84	789.43
538.26	780.96
539.68	861.44
541.09	838.88
542.51	835.97
543.93	814.87
545.35	814.79
546.77	838.44
548.18	819.75
549.6	827.46
551.02	805.32
552.44	803.16
553.85	819.27
555.27	842.51
556.69	860.88
558.11	864.66
559.52	825.58
560.94	845.84
562.36	871.59
563.78	885.06
565.2	883.28
566.61	873.46
568.03	920.52
569.45	927.77
570.87	944.01
572.28	934.3
573.7	917.67
575.12	934.94
576.54	982.67
577.95	1008.2
579.37	1014.3
580.79	1061.6
582.21	1107.7
583.62	1143.4
585.04	1209.6
586.46	1297.7
587.88	1501.4
589.3	1607.8
590.71	1727.7
592.13	1884
593.55	2057.9
594.97	2234.7
596.38	2320.5
597.8	2399.4
599.22	2449.6
600.64	2445.3
602.05	2417.4
603.47	2360.5
604.89	2131.6
606.31	2029.6
607.72	1854.9
609.14	1662.9
610.56	1494.9
611.98	1375.7
613.4	1303.4
614.81	1233.1
616.23	1221.4
617.65	1166.9
619.07	1131.3
620.48	1109.1
621.9	1100.9
623.32	1129.5
624.74	1159.2
626.15	1164.3
627.57	1206.8
628.99	1278.8
630.41	1392.5
631.82	1541.9
633.24	1691.5
634.66	1873.2
636.08	2114.2
637.5	2234.1
638.91	2348.7
640.33	2466.5
641.75	2511.1
643.17	2426.4
644.58	2422.9
646	2240.6
647.42	2019.9
648.84	1808.8
650.25	1666
651.67	1609.3
653.09	1583.5
654.51	1696.2
655.92	1786.8
657.34	1891.4
658.76	2030.8
660.18	2184.3
661.6	2287.9
663.01	2272.9
664.43	2325.1
665.85	2337.3
667.27	2274.3
668.68	2088.5
670.1	1846
671.52	1616.7
672.94	1368.1
674.35	1215.1
675.77	1107
677.19	1064.5
678.61	1049.4
680.02	1051.2
681.44	1047.6
682.86	987.94
684.28	1005
685.7	968.88
687.11	952.59
688.53	946.76
689.95	942.43
691.37	951.41
692.78	987.92
694.2	951.5
695.62	949.89
697.04	963.45
698.45	951.07
699.87	942.49
701.29	959.13
702.71	973.28
704.12	961.67
705.54	1016.8
706.96	976.6
708.38	1002.5
709.8	1021.6
711.21	1008.7
712.63	1035.6
714.05	1071.6
715.47	1128.2
716.88	1166.7
718.3	1229.1
719.72	1250.8
721.14	1262
722.55	1315
723.97	1325.4
725.39	1294
726.81	1255.5
728.22	1232.1
729.64	1188.1
731.06	1120.7
732.48	1064.5
733.9	1054
735.31	1023.9
736.73	1056
738.15	1037.2
739.57	1015.2
740.98	1006.1
742.4	1012.5
743.82	1032.8
745.24	1048.4
746.65	1049.9
748.07	1090.6
749.49	1099.1
750.91	1148.5
752.32	1234.3
753.74	1321.7
755.16	1445
756.58	1580.2
758	1655.6
759.41	1713.8
760.83	1817.5
762.25	1876.4
763.67	1878.8
765.08	1907.5
766.5	1862.8
767.92	1719.6
769.34	1592.7
770.75	1507.4
772.17	1396.4
773.59	1290.4
775.01	1233
776.42	1176.7
777.84	1167.6
779.26	1143.1
780.68	1174.2
782.1	1177
783.51	1180.3
784.93	1204.5
786.35	1238.8
787.77	1304.4
789.18	1267.2
790.6	1275.1
792.02	1278.1
793.44	1293.1
794.85	1305
796.27	1292.8
797.69	1264.7
799.11	1263.3
800.52	1322.4
801.94	1340.8
803.36	1378.2
804.78	1412.2
806.2	1408
807.61	1403.1
809.03	1491.2
810.45	1549.2
811.87	1625.6
813.28	1702.4
814.7	1821
816.12	1950.9
817.54	2123.2
818.95	2362.9
820.37	2612.1
821.79	3059
823.21	3580.1
824.62	4274.9
826.04	5239.2
827.46	6395.9
828.88	7687.4
830.3	9101.6
831.71	10555
833.13	11731
834.55	12732
835.97	13233
837.38	13583
838.8	13570
840.22	13032
841.64	12034
843.05	10644
844.47	9161.9
845.89	7471.6
847.31	6213.2
848.72	5219
850.14	4379.9
851.56	3717
852.98	3260
854.4	2916
855.81	2674
857.23	2511.4
858.65	2392
860.07	2253.4
861.48	2192.3
862.9	2174.3
864.32	2116.4
865.74	2090.3
867.15	2098.8
868.57	2103.3
869.99	2162.9
871.41	2336.2
872.82	2579.9
874.24	2948.4
875.66	3508.4
877.08	4241.1
878.5	5207.6
879.91	5818.1
881.33	6652
882.75	7330
884.17	7760.3
885.58	7949.8
887	7937.3
888.42	7738.1
889.84	7269.5
891.25	6369.3
892.67	5261.4
894.09	4294.1
895.51	3513.7
896.92	2881.7
898.34	2433.3
899.76	2176.2
901.18	1943.3
902.6	1908
904.01	1751.2
905.43	1743.1
906.85	1712.7
908.27	1675.7
909.68	1628.3
911.1	1577.8
912.52	1583
913.94	1584.3
915.35	1542
916.77	1568.1
918.19	1584.3
919.61	1600
921.02	1613.3
922.44	1629.6
923.86	1649.3
925.28	1644.5
926.7	1675.1
928.11	1719.2
929.53	1790.6
930.95	1835
932.37	1877.6
933.78	1932
935.2	2051.5
936.62	2274.7
938.04	2431.4
939.45	2723.4
940.87	3119.3
942.29	3733
943.71	4530.7
945.13	5531
946.54	6762.9
947.96	8130.5
949.38	9385.4
950.8	10382
952.21	11532
953.63	12213
955.05	12369
956.47	12183
957.88	11634
959.3	10642
960.72	9337.4
962.14	8013.7
963.55	6373.6
964.97	5254.9
966.39	4491.3
967.81	3863.4
969.23	3435.2
970.64	3057.6
972.06	2728.4
973.48	2537.5
974.9	2333.2
976.31	2104.6
977.73	1940.3
979.15	1849.4
980.57	1716
981.98	1670.2
983.4	1635.3
984.82	1578.8
986.24	1554.6
987.65	1537.8
989.07	1574.2
990.49	1546.5
991.91	1507.4
993.33	1548.9
994.74	1500.4
996.16	1458.7
997.58	1462.8
999	1456.9
1000.4	1465.3
1001.8	1464.9
1003.2	1449.7
1004.6	1451.4
1006	1466.9
1007.5	1482.5
1008.9	1476.2
1010.3	1444.6
1011.7	1422.2
1013.1	1434.6
1014.5	1417.7
1016	1458.7
1017.4	1449.6
1018.8	1433.8
1020.2	1463.2
1021.6	1464.5
1023.1	1431.7
1024.5	1419
1025.9	1442.8
1027.3	1452.9
1028.7	1488
1030.1	1413.4
1031.6	1436.5
1033	1480.6
1034.4	1509.6
1035.8	1488.7
1037.2	1480
1038.6	1511.8
1040.1	1486.7
1041.5	1427.1
1042.9	1491
1044.3	1470.3
1045.7	1417.6
1047.2	1452.2
1048.6	1471.4
1050	1458.2
1051.4	1463.8
1052.8	1496.1
1054.2	1508.4
1055.7	1503
1057.1	1530.3
1058.5	1549.6
1059.9	1548.6
1061.3	1511.2
1062.7	1510.6
1064.2	1520.6
1065.6	1541.6
1067	1623.3
1068.4	1688.3
1069.8	1748
1071.3	1791
1072.7	1879.7
1074.1	2037.8
1075.5	2170.1
1076.9	2294
1078.3	2399
1079.8	2491.4
1081.2	2590.7
1082.6	2615.8
1084	2670
1085.4	2701.9
1086.8	2603.2
1088.3	2496.7
1089.7	2402
1091.1	2288.8
1092.5	2196.1
1093.9	2140.7
1095.4	2091.2
1096.8	2073.6
1098.2	2017.7
1099.6	1957.8
1101	1849.8
1102.4	1773.5
1103.9	1758.1
1105.3	1725.9
1106.7	1685.1
1108.1	1638.6
1109.5	1578.3
1110.9	1562.3
1112.4	1501.9
1113.8	1518
1115.2	1570.1
1116.6	1522.6
1118	1516.3
1119.5	1501.8
1120.9	1507.4
1122.3	1551.2
1123.7	1560.1
1125.1	1498.3
1126.5	1513.8
1128	1535.1
1129.4	1499.3
1130.8	1572.2
1132.2	1587.9
1133.6	1574.6
1135	1547.4
1136.5	1527.1
1137.9	1543.7
1139.3	1572.1
1140.7	1549.2
1142.1	1583.9
1143.6	1597.2
1145	1637.4
1146.4	1641.6
1147.8	1675.1
1149.2	1667.6
1150.6	1682.9
1152.1	1724.7
1153.5	1769.9
1154.9	1861.2
1156.3	2004.8
1157.7	2156
1159.1	2367.4
1160.6	2707.3
1162	3179
1163.4	3624.8
1164.8	4057.5
1166.2	4537.4
1167.7	5031.5
1169.1	5351.8
1170.5	5437.9
1171.9	5571.4
1173.3	5502.2
1174.7	5254.7
1176.2	4885.8
1177.6	4631.5
1179	4346.1
1180.4	4164.7
1181.8	4199.6
1183.2	4414.8
1184.7	4672.7
1186.1	4925.2
1187.5	5286.3
1188.9	5661.1
1190.3	5848.3
1191.8	6142.8
1193.2	6181
1194.6	6096.7
1196	5878.2
1197.4	5671.3
1198.8	5354.6
1200.3	4951.6
1201.7	4590.3
1203.1	4157.2
1204.5	3798.5
1205.9	3595.8
1207.3	3297.4
1208.8	3033.5
1210.2	2897.5
1211.6	2864.2
1213	2789.5
1214.4	2682.6
1215.9	2645.7
1217.3	2686.2
1218.7	2703.8
1220.1	2658.4
1221.5	2614.9
1222.9	2534.9
1224.4	2572.2
1225.8	2462.2
1227.2	2468.6
1228.6	2473.8
1230	2523.3
1231.4	2553.3
1232.9	2557.5
1234.3	2657.2
1235.7	2896
1237.1	3146.9
1238.5	3406.1
1240	3886
1241.4	4342.5
1242.8	4956.6
1244.2	5715.5
1245.6	6449.5
1247	6992.1
1248.5	7435.9
1249.9	7846.9
1251.3	8045
1252.7	7920.5
1254.1	7688.8
1255.5	7287.7
1257	6692.2
1258.4	6226.5
1259.8	5950.1
1261.2	5552.3
1262.6	5450.1
1264.1	5377.9
1265.5	5328.3
1266.9	5344.3
1268.3	5344.7
1269.7	5267
1271.1	5161.5
1272.6	5046.5
1274	4713.4
1275.4	4376
1276.8	4056.2
1278.2	3695.6
1279.6	3420.2
1281.1	3094.3
1282.5	2920.1
1283.9	2845.2
1285.3	2765
1286.7	2736.8
1288.2	2771.3
1289.6	2782.5
1291	2943.4
1292.4	3165.8
1293.8	3238.5
1295.2	3367.1
1296.7	3742
1298.1	4156.8
1299.5	4631.8
1300.9	5245.8
1302.3	6044.5
1303.7	6985.9
1305.2	8013.3
1306.6	9039
1308	9963.1
1309.4	10852
1310.8	11471
1312.3	12215
1313.7	12333
1315.1	12312
1316.5	11929
1317.9	11462
1319.3	10760
1320.8	9923.6
1322.2	9135.1
1323.6	8330.7
1325	7448.5
1326.4	6637.2
1327.8	5937.8
1329.3	5372.5
1330.7	4674.2
1332.1	4301.5
1333.5	4014.1
1334.9	3706.4
1336.4	3564.2
1337.8	3533.9
1339.2	3526.9
1340.6	3682
1342	3989.2
1343.4	4397.6
1344.9	4916.8
1346.3	5476.2
1347.7	6010.2
1349.1	6364.6
1350.5	6748.5
1351.9	6879.2
1353.4	7141.6
1354.8	6724.1
1356.2	6322
1357.6	5816.6
1359	5313.7
1360.5	4824.5
1361.9	4452.4
1363.3	4258.9
1364.7	4168.2
1366.1	4179.9
1367.5	4277.1
1369	4190
1370.4	4270.8
1371.8	4247.5
1373.2	4027.7
1374.6	3911.9
1376	3608.7
1377.5	3374.8
1378.9	3152.8
1380.3	2995.7
1381.7	2854.3
1383.1	2751.8
1384.6	2718.1
1386	2684.2
1387.4	2594.7
1388.8	2478.1
1390.2	2493
1391.6	2436.1
1393.1	2449.9
1394.5	2361
1395.9	2319.5
1397.3	2289.4
1398.7	2316.9
1400.1	2313
1401.6	2273.6
1403	2305.3
1404.4	2304
1405.8	2339.7
1407.2	2503
1408.7	2658.1
1410.1	2928.5
1411.5	3417.6
1412.9	4006.7
1414.3	4613
1415.7	5475.8
1417.2	5892.7
1418.6	6408.2
1420	6713.9
1421.4	6793.6
1422.8	6530.8
1424.2	6158.4
1425.7	5635
1427.1	4862
1428.5	4143.3
1429.9	3693.4
1431.3	3418.7
1432.8	3397.2
1434.2	3403.5
1435.6	3426.7
1437	3532.4
1438.4	3571.9
1439.8	3576
1441.3	3503.3
1442.7	3451.3
1444.1	3346.3
1445.5	3170.5
1446.9	3111.9
1448.3	3247.5
1449.8	3462.5
1451.2	3737.4
1452.6	4055.7
1454	4375.5
1455.4	4702.6
1456.9	4856.1
1458.3	4821.5
1459.7	4675.9
1461.1	4511.2
1462.5	4109.4
1463.9	3715.2
1465.4	3328.2
1466.8	3034
1468.2	2777.9
1469.6	2565.9
1471	2433.6
1472.4	2338.9
1473.9	2260.7
1475.3	2231.7
1476.7	2213.4
1478.1	2190.8
1479.5	2201.4
1481	2201.2
1482.4	2230.6
1483.8	2188.3
1485.2	2250.9
1486.6	2228.5
1488	2188
1489.5	2267.6
1490.9	2236.8
1492.3	2242.4
1493.7	2213.5
1495.1	2246.4
1496.5	2289.5
1498	2338.2
1499.4	2380.3
1500.8	2422.2
1502.2	2473.9
1503.6	2530.5
1505.1	2593.7
1506.5	2673.7
1507.9	2759.7
1509.3	2804.2
1510.7	3044.4
1512.1	3213.9
1513.6	3248.7
1515	3531.7
1516.4	3848.7
1517.8	4190.1
1519.2	4473.6
1520.6	4786
1522.1	5120.8
1523.5	5431.4
1524.9	5644.5
1526.3	5785.3
1527.7	5863.3
1529.2	5873
1530.6	5736
1532	5512.7
1533.4	5317.8
1534.8	5010.4
1536.2	4728.9
1537.7	4232.8
1539.1	3947
1540.5	3797
1541.9	3598.1
1543.3	3399.2
1544.7	3420.4
1546.2	3305.4
1547.6	3332.6
1549	3349.9
1550.4	3492
1551.8	3636.6
1553.3	3792.6
1554.7	4091.9
1556.1	4388.2
1557.5	4608.7
1558.9	4795.8
1560.3	4995.8
1561.8	5158.3
1563.2	5174.3
1564.6	5224.8
1566	5287.3
1567.4	5048.4
1568.8	5003.5
1570.3	4787.7
1571.7	4712
1573.1	4441
1574.5	4330.2
1575.9	4042.6
1577.4	3601.2
1578.8	3322.2
1580.2	3062.7
1581.6	2872
1583	2675.3
1584.4	2565.3
1585.9	2514
1587.3	2473
1588.7	2449.4
1590.1	2427.4
1591.5	2428.6
1592.9	2446.6
1594.4	2412
1595.8	2392.4
1597.2	2428.9
1598.6	2393.5
1600	2384.7
1601.5	2358
1602.9	2382.1
1604.3	2397.4
1605.7	2363.7
1607.1	2325.2
1608.5	2349.6
1610	2350.4
1611.4	2313.3
1612.8	2297.5
1614.2	2287.8
1615.6	2241.4
1617	2261.5
1618.5	2276
1619.9	2274.1
1621.3	2257.4
1622.7	2279.7
1624.1	2317
1625.6	2343.5
1627	2327.5
1628.4	2264.8
1629.8	2246.7
1631.2	2263.1
1632.6	2292.6
1634.1	2189.4
1635.5	2185.5
1636.9	2302.1
1638.3	2231
1639.7	2192.7
1641.1	2215.1
1642.6	2181.8
1644	2270.5
1645.4	2267.5
1646.8	2285.7
1648.2	2187.5
1649.7	2230.2
1651.1	2198.9
1652.5	2219.4
1653.9	2285.2
1655.3	2336.3
1656.7	2318.3
1658.2	2322.1
1659.6	2334.7
1661	2297.4
1662.4	2265
1663.8	2272.6
1665.2	2311.4
1666.7	2309.8
1668.1	2264.9
1669.5	2265.5
1670.9	2232.2
1672.3	2256.5
1673.8	2314.6
1675.2	2285.2
1676.6	2303.6
1678	2284.8
1679.4	2338.8
1680.8	2279.3
1682.3	2308.3
1683.7	2346.6
1685.1	2380.1
1686.5	2309.5
1687.9	2284.3
1689.3	2282.8
1690.8	2305.3
1692.2	2330.5
1693.6	2403.5
1695	2346.3
1696.4	2322.9
1697.9	2309.5
1699.3	2272
1700.7	2252.5
1702.1	2295
1703.5	2309.7
1704.9	2317.2
1706.4	2327.7
1707.8	2275.8
1709.2	2271.4
1710.6	2312.2
1712	2326.3
1713.4	2369.6
1714.9	2343.1
1716.3	2278.4
1717.7	2300.1
1719.1	2332.2
1720.5	2352.1
1722	2352.8
1723.4	2326.5
1724.8	2305.8
1726.2	2315.4
1727.6	2346.8
1729	2363.2
1730.5	2399.2
1731.9	2346.4
1733.3	2303.6
1734.7	2283.9
1736.1	2398.2
1737.5	2443.3
1739	2390.1
1740.4	2295.1
1741.8	2337.3
1743.2	2419.8
1744.6	2367.3
1746.1	2397.1
1747.5	2375.3
1748.9	2403.4
1750.3	2370.3
1751.7	2351
1753.1	2348.6
1754.6	2366.8
1756	2418.4
1757.4	2433.1
1758.8	2402.7
1760.2	2434.6
1761.6	2468.6
1763.1	2438.6
1764.5	2415.4
1765.9	2441.8
1767.3	2431.4
1768.7	2424.9
1770.2	2463.8
1771.6	2443.4
1773	2415.4
1774.4	2352
1775.8	2390.3
1777.2	2438.3
1778.7	2411.8
1780.1	2429.7
1781.5	2367.8
1782.9	2386
1784.3	2430.6
1785.7	2444.1
1787.2	2502.1
1788.6	2459.4
1790	2431.6
1791.4	2395.5
1792.8	2371
1794.3	2530.9
1795.7	2508
1797.1	2523.5
1798.5	2483
1799.9	2435.8
1801.3	2473.4
1802.8	2493
1804.2	2476.2
1805.6	2501.3
1807	2438.9
1808.4	2402
1809.8	2534.4
1811.3	2447.4
1812.7	2395.7
1814.1	2512.1
1815.5	2496.7
1816.9	2493.3
1818.4	2493.8
1819.8	2525.8
1821.2	2518.9
1822.6	2495.9
1824	2525.2
1825.4	2510.7
1826.9	2563.5
1828.3	2566.1
1829.7	2554.3
1831.1	2550.2
1832.5	2564.9
1833.9	2541
1835.4	2528.8
1836.8	2554.8
1838.2	2594.7
1839.6	2568.2
1841	2526.5
1842.5	2525.8
1843.9	2563.7
1845.3	2554.9
1846.7	2593.7
1848.1	2595
1849.5	2574.4
1851	2605.6
1852.4	2595.7
1853.8	2629.6
1855.2	2618.6
1856.6	2551.2
1858	2526.5
1859.5	2565
1860.9	2605.4
1862.3	2591.3
1863.7	2588.9
1865.1	2565.9
1866.6	2554.2
1868	2581
1869.4	2585.9
1870.8	2585.2
1872.2	2626.6
1873.6	2629.8
1875.1	2628.7
1876.5	2675.1
1877.9	2600.7
1879.3	2615.1
1880.7	2656.9
1882.1	2652.6
1883.6	2622.4
1885	2662.7
1886.4	2679.2
1887.8	2613.7
1889.2	2679.8
1890.7	2705
1892.1	2682.8
1893.5	2681.8
1894.9	2669.6
1896.3	2712.4
1897.7	2687.6
1899.2	2618.7
1900.6	2661.2
1902	2763.4
1903.4	2704.7
1904.8	2749
1906.2	2712.1
1907.7	2640.2
1909.1	2636.4
1910.5	2726.1
1911.9	2753.8
1913.3	2695.5
1914.8	2668.6
1916.2	2725.1
1917.6	2678.6
1919	2680.1
1920.4	2663.5
1921.8	2743.2
1923.3	2723
1924.7	2703.8
1926.1	2741.2
1927.5	2711.3
1928.9	2712.3
1930.3	2786
1931.8	2807.9
1933.2	2687.4
1934.6	2708.2
1936	2796.5
1937.4	2763.7
1938.9	2711.5
1940.3	2700.5
1941.7	2693.8
1943.1	2690.7
1944.5	2797.4
1945.9	2756.8
1947.4	2758
1948.8	2726.7
1950.2	2783.4
1951.6	2746.4
1953	2775
1954.4	2754.7
1955.9	2740.8
1957.3	2690.8
1958.7	2789.7
1960.1	2749.8
1961.5	2760.2
1963	2840.2
1964.4	2829.1
1965.8	2814.1
1967.2	2855.9
1968.6	2801.7
1970	2823.4
1971.5	2854.7
1972.9	2801.6
1974.3	2830.5
1975.7	2852.5
1977.1	2810.4
1978.5	2814.1
1980	2774.6
1981.4	2803.2
1982.8	2842.4
1984.2	2874.1
1985.6	2812.4
1987.1	2829.6
1988.5	2883.7
1989.9	2855.3
1991.3	2850.9
1992.7	2861.8
1994.1	2892
1995.6	2851.9
1997	2861.9
1998.4	2896.1
1999.8	2836.7
2001.2	2838.8
2002.6	2867.4
2004.1	2849.5
2005.5	2866.2
2006.9	2927
2008.3	2882.7
2009.7	2947.1
2011.2	2890.6
2012.6	2922
2014	2892.6
2015.4	2888.3
2016.8	2909.1
2018.2	2884.4
2019.7	2910
2021.1	2896.8
2022.5	2893.5
2023.9	2923
2025.3	2876.5
2026.7	2860
2028.2	2933.2
2029.6	2910.3
2031	2907.7
2032.4	2969.6
2033.8	2967.6
2035.3	2987
2036.7	3004.9
2038.1	2982.2
2039.5	3000
2040.9	2980.2
2042.3	2930.1
2043.8	2939.3
2045.2	2972.8
2046.6	2954.9
2048	2911.3
2049.4	2903
2050.8	2992.3
2052.3	2972.7
2053.7	2921.4
2055.1	2961.4
2056.5	2980.2
2057.9	2952.2
2059.4	2972
2060.8	2918.5
2062.2	2951.9
2063.6	3051.3
2065	2975.3
2066.4	2956.9
2067.9	3091
2069.3	3039.9
2070.7	2999.4
2072.1	2971.9
2073.5	3019.9
2074.9	2972.6
2076.4	3036.3
2077.8	3085.8
2079.2	3009.4
2080.6	2975.9
2082	3055
2083.5	3033.6
2084.9	3015.1
2086.3	3087.2
2087.7	3103.4
2089.1	3040.2
2090.5	3050.4
2092	3011.7
2093.4	3055.4
2094.8	3083.6
2096.2	3076.1
2097.6	2988.8
2099	3036.6
2100.5	3095.4
2101.9	3074.7
2103.3	3045.1
2104.7	3126.9
2106.1	3088.3
2107.6	3052.7
2109	3063
2110.4	3085.9
2111.8	3087.6
2113.2	3125
2114.6	3071.5
2116.1	3028.9
2117.5	3053.2
2118.9	3091.3
2120.3	3110.1
2121.7	3132.6
2123.1	3180
2124.6	3111.8
2126	3124.2
2127.4	3140.6
2128.8	3098.7
2130.2	3159.1
2131.7	3222.2
2133.1	3146.8
2134.5	3170.9
2135.9	3121.4
2137.3	3137.4
2138.7	3142.6
2140.2	3149.7
2141.6	3135.8
2143	3194.3
2144.4	3165.3
2145.8	3095.3
2147.2	3150.1
2148.7	3206.1
2150.1	3150.6
2151.5	3153.6
2152.9	3180.6
2154.3	3165.8
2155.8	3206.4
2157.2	3210.9
2158.6	3192.8
2160	3217.2
2161.4	3243
2162.8	3229
2164.3	3256.8
2165.7	3223.5
2167.1	3212.9
2168.5	3213.3
2169.9	3251.7
2171.3	3243.8
2172.8	3251.2
2174.2	3258.2
2175.6	3200.3
2177	3224.1
2178.4	3271.3
2179.9	3262
2181.3	3266.3
2182.7	3229.8
2184.1	3274.9
2185.5	3305.6
2186.9	3192.8
2188.4	3312.4
2189.8	3217
2191.2	3269.8
2192.6	3219.9
2194	3343.1
2195.4	3210.3
2196.9	3264.7
2198.3	3267.3
2199.7	3272
2201.1	3260.9
2202.5	3198.4
2204	3253.9
2205.4	3339.9
2206.8	3388.9
2208.2	3317.8
2209.6	3272.1
2211	3268.9
2212.5	3257.4
2213.9	3278.5
2215.3	3291.2
2216.7	3345
2218.1	3315.8
2219.5	3316.4
2221	3322.5
2222.4	3319.1
2223.8	3243
2225.2	3346.2
2226.6	3335.2
2228.1	3344
2229.5	3331.4
2230.9	3323.3
2232.3	3270.2
2233.7	3373.3
2235.1	3360.4
2236.6	3273.8
2238	3365.8
2239.4	3323
2240.8	3370.3
2242.2	3314.4
2243.6	3305.7
2245.1	3384
2246.5	3391.6
2247.9	3324.2
2249.3	3353.4
2250.7	3379.9
2252.2	3392
2253.6	3421.5
2255	3408.4
2256.4	3363.6
2257.8	3347.8
2259.2	3443.3
2260.7	3399.3
2262.1	3422.2
2263.5	3435.7
2264.9	3394.1
2266.3	3422
2267.7	3475.2
2269.2	3442
2270.6	3434.8
2272	3457.1
2273.4	3492.1
2274.8	3474.4
2276.3	3488.3
2277.7	3520.5
2279.1	3533
2280.5	3482.1
2281.9	3489.2
2283.3	3449.9
2284.8	3510.9
2286.2	3537.8
2287.6	3529.7
2289	3521.2
2290.4	3515.8
2291.8	3521.9
2293.3	3446
2294.7	3532.9
2296.1	3508
2297.5	3533
2298.9	3527.9
2300.4	3403.3
2301.8	3538.9
2303.2	3548.8
2304.6	3474.4
2306	3409.1
2307.4	3538.8
2308.9	3533.4
2310.3	3528.9
2311.7	3542.3
2313.1	3605.4
2314.5	3615.1
2315.9	3575.5
2317.4	3511.9
2318.8	3477.7
2320.2	3548.7
2321.6	3588.6
2323	3580.7
2324.5	3559.6
2325.9	3594.2
2327.3	3558.3
2328.7	3552.3
2330.1	3568.3
2331.5	3541
2333	3621.3
2334.4	3702.7
2335.8	3609.4
2337.2	3614.2
2338.6	3541.5
2340	3585.2
2341.5	3646.4
2342.9	3617.1
2344.3	3590.2
2345.7	3609.9
2347.1	3587.6
2348.6	3654.7
2350	3689.9
2351.4	3714
2352.8	3610.3
2354.2	3678.9
2355.6	3582.8
2357.1	3669.9
2358.5	3673
2359.9	3640.4
2361.3	3685.2
2362.7	3631.8
2364.1	3644.5
2365.6	3662.5
2367	3648.2
2368.4	3673.2
2369.8	3714.4
2371.2	3688.7
2372.7	3732.5
2374.1	3771.2
2375.5	3713.2
2376.9	3699
2378.3	3708.5
2379.7	3889.7
2381.2	3709.2
2382.6	3818.8
2384	3805
2385.4	3820.5
2386.8	3788.1
2388.2	3775.7
2389.7	3773.2
2391.1	3903
2392.5	3846.2
2393.9	3774.9
2395.3	3826.3
2396.8	3858.3
2398.2	3863.7
2399.6	3918.3
2401	3902.7
2402.4	3945.7
2403.8	3825.2
2405.3	3844.6
2406.7	3856.9
2408.1	3796.8
2409.5	3807.4
2410.9	3887.8
2412.3	3818.2
2413.8	3794
2415.2	3804.6
2416.6	3753.2
2418	3808.7
2419.4	3855.9
2420.9	3882.2
2422.3	3820.9
2423.7	3810.8
2425.1	3877
2426.5	3868.9
2427.9	3913.4
2429.4	3815.1
2430.8	3785.2
2432.2	3824.4
2433.6	3806.3
2435	3789.8
2436.4	3773.9
2437.9	3839.8
2439.3	3853.7
2440.7	3853.9
2442.1	3844
2443.5	3812.1
2445	3757.1
2446.4	3804.9
2447.8	3777.4
2449.2	3769.6
2450.6	3928.5
2452	3878.7
2453.5	3884.5
2454.9	3919.5
2456.3	3906.1
2457.7	3865.2
2459.1	3843.7
2460.5	3838.3
2462	3879.4
2463.4	3878
2464.8	3909
2466.2	3888.7
2467.6	3885.2
2469.1	3939.8
2470.5	3909.3
2471.9	3934.4
2473.3	3876.6
2474.7	3868.2
2476.1	3893.7
2477.6	3897.9
2479	3933
2480.4	4058.7
2481.8	3977.9
2483.2	3913.8
2484.6	4008.3
2486.1	3959
2487.5	3844.5
2488.9	3938.4
2490.3	3958.3
2491.7	3907.9
2493.2	3902.6
2494.6	3956.5
2496	3950.5
2497.4	3957.7
2498.8	3963.7
2500.2	3955
2501.7	4004.9
2503.1	4033.6
2504.5	4003.5
2505.9	4027.7
2507.3	3949.6
2508.8	3904.8
2510.2	3984.4
2511.6	4044.2
2513	4035.5
2514.4	4027.2
2515.8	4059.9
2517.3	4037.8
2518.7	3957.1
2520.1	4001.9
2521.5	3973.9
2522.9	4038.8
2524.3	4051.1
2525.8	4075.7
2527.2	3992.5
2528.6	3953.4
2530	3951.4
2531.4	3981.8
2532.8	3985.1
2534.3	4040.8
2535.7	4027.4
2537.1	3982
2538.5	4057.4
2539.9	4069.2
2541.4	3953.5
2542.8	3997.6
2544.2	4150.4
2545.6	4112.7
2547	4023
2548.4	4035.9
2549.9	4070.4
2551.3	4118.5
2552.7	4122
2554.1	4082
2555.5	4088.6
2556.9	4090.9
2558.4	4089.6
2559.8	4050.4
2561.2	4050.1
2562.6	4136.6
2564	4176.4
2565.5	4096.8
2566.9	4124.8
2568.3	4101.2
2569.7	4050.6
2571.1	4092.9
2572.5	4104.4
2574	4052
2575.4	4143.9
2576.8	4179.8
2578.2	4119
2579.6	4140.9
2581	4079.3
2582.5	4162.4
2583.9	4131.2
2585.3	4186.3
2586.7	4194.3
2588.1	4163.1
2589.6	4207.6
2591	4125.7
2592.4	4024.2
2593.8	4039.5
2595.2	4212.5
2596.6	4084.2
2598.1	4139.3
2599.5	4192.7
2600.9	4180.9
2602.3	4133
2603.7	4149.4
2605.2	4198.8
2606.6	4259.9
2608	4240.9
2609.4	4221.2
2610.8	4219.8
2612.2	4248.9
2613.7	4284
2615.1	4220.9
2616.5	4184.7
2617.9	4211.2
2619.3	4208.9
2620.7	4220.9
2622.2	4220.7
2623.6	4127.6
2625	4209.4
2626.4	4209
2627.8	4170.1
2629.3	4238.3
2630.7	4250.5
2632.1	4217.2
2633.5	4146.2
2634.9	4166.8
2636.3	4188.1
2637.8	4254.2
2639.2	4260.7
2640.6	4292.9
2642	4278.7
2643.4	4204.2
2644.8	4166.5
2646.3	4229.4
2647.7	4211.3
2649.1	4239
2650.5	4189
2651.9	4318
2653.4	4288.1
2654.8	4273
2656.2	4322.5
2657.6	4261.5
2659	4246.4
2660.4	4328.8
2661.9	4324
2663.3	4275.3
2664.7	4247.4
2666.1	4287.8
2667.5	4338.9
2668.9	4385.9
2670.4	4340.2
2671.8	4347.6
2673.2	4265.1
2674.6	4309.7
2676	4360.2
2677.5	4446.5
2678.9	4385.7
2680.3	4350
2681.7	4416.3
2683.1	4474.8
2684.5	4424.8
2686	4347.2
2687.4	4323.9
2688.8	4274.8
2690.2	4345.3
2691.6	4306.4
2693	4283.7
2694.5	4314.4
2695.9	4346.8
2697.3	4218.9
2698.7	4232.1
2700.1	4327.1
2701.6	4304.8
2703	4292.9
2704.4	4291.4
2705.8	4273.9
2707.2	4218.2
2708.6	4308.5
2710.1	4362.4
2711.5	4356.4
2712.9	4291.8
2714.3	4348.8
2715.7	4389.5
2717.1	4466.1
2718.6	4462.5
2720	4421.4
2721.4	4392.3
2722.8	4485.2
2724.2	4398.4
2725.7	4495.5
2727.1	4633.5
2728.5	4640.2
2729.9	4597.5
2731.3	4576.4
2732.7	4551
2734.2	4525.5
2735.6	4529.1
2737	4525.7
2738.4	4503.9
2739.8	4562.4
2741.2	4591.2
2742.7	4380.3
2744.1	4358.3
2745.5	4438.5
2746.9	4463
2748.3	4463.4
2749.8	4501.5
2751.2	4346.6
2752.6	4383.2
2754	4420.7
2755.4	4480.7
2756.8	4525
2758.3	4430.8
2759.7	4469.7
2761.1	4474.2
2762.5	4445.4
2763.9	4392.9
2765.3	4486.8
2766.8	4478.1
2768.2	4443.2
2769.6	4484.4
2771	4487.5
2772.4	4494.2
2773.9	4590.2
2775.3	4698.1
2776.7	4615.1
2778.1	4669.3
2779.5	4743.1
2780.9	4826.7
2782.4	4820.7
2783.8	4716.9
2785.2	4758.5
2786.6	4817.7
2788	4786.2
2789.4	4834
2790.9	4733.1
2792.3	4688.3
2793.7	4743.5
2795.1	4782.1
2796.5	4697.1
2798	4878.2
2799.4	4793.2
2800.8	4747.8
2802.2	4706
2803.6	4849.5
2805	4939.6
2806.5	4912.9
2807.9	4870.6
2809.3	4910.3
2810.7	4866.1
2812.1	4824.9
2813.5	4809.3
2815	4801.1
2816.4	4808
2817.8	4735.6
2819.2	4658.6
2820.6	4644.4
2822.1	4669.7
2823.5	4635.7
2824.9	4852.1
2826.3	4784.5
2827.7	4794.3
2829.1	4906.3
2830.6	4991
2832	5028.1
2833.4	5042.3
2834.8	5023.5
2836.2	5244.5
2837.6	4954.6
2839.1	5024.9
2840.5	4941.3
2841.9	4849.6
2843.3	4829.6
2844.7	4691.5
2846.2	4711
2847.6	4663.3
2849	4778.8
2850.4	4712
2851.8	4674.1
2853.2	4649.6
2854.7	4675.5
2856.1	4629.4
2857.5	4828.8
2858.9	4895.8
2860.3	4980.9
2861.7	5066
2863.2	5076
2864.6	5139.8
2866	5198.8
2867.4	5205.7
2868.8	5270.7
2870.3	5278.7
2871.7	5261.6
2873.1	5241.9
2874.5	5199.3
2875.9	5144.2
2877.3	5112.5
2878.8	5079.6
2880.2	5010.5
2881.6	4897.5
2883	4845.9
2884.4	4841.5
2885.8	4814.8
2887.3	4872.2
2888.7	4998.5
2890.1	4719.9
2891.5	5031.6
2892.9	4910.3
2894.4	4973.6
2895.8	5009.3
2897.2	4983.7
2898.6	5003.5
2900	5100.6
2901.4	5209.3
2902.9	5425.9
2904.3	5490.6
2905.7	5754.1
2907.1	6006.8
2908.5	6256.5
2909.9	6378.7
2911.4	6707
2912.8	6544.1
2914.2	6745.7
2915.6	6652.9
2917	6591.2
2918.5	6550.5
2919.9	6472.2
2921.3	6307.7
2922.7	6270.3
2924.1	6238.5
2925.5	6183.1
2927	6104.8
2928.4	6119.8
2929.8	6046.9
2931.2	5909.5
2932.6	5770.4
2934	5825.1
2935.5	5838.5
2936.9	5781
2938.3	5779.9
2939.7	5837.8
2941.1	5865.9
2942.6	5860.2
2944	6055.9
2945.4	6160.2
2946.8	6282.4
2948.2	6394.8
2949.6	6532.4
2951.1	6559.5
2952.5	6655.4
2953.9	6777.2
2955.3	6701.4
2956.7	6748.3
2958.1	6704.7
2959.6	6736
2961	6803.5
2962.4	6991.4
2963.8	6946.2
2965.2	7205.7
2966.7	7338
2968.1	7568.4
2969.5	7876.2
2970.9	8347.7
2972.3	8724
2973.7	9340.4
2975.2	10214
2976.6	11072
2978	12226
2979.4	13577
2980.8	15172
2982.2	16953
2983.7	19455
2985.1	21869
2986.5	24758
2987.9	28262
2989.3	32553
2990.8	37024
2992.2	41437
2993.6	44764
2995	47088
2996.4	47318
2997.8	45920
2999.3	42673
3000.7	37808
3002.1	32170
3003.5	26883
3004.9	22328
3006.3	18653
3007.8	15807
3009.2	13428
3010.6	12057
3012	10589
3013.4	9847.5
3014.9	9223.2
3016.3	8871.1
3017.7	8629.2
3019.1	8773
3020.5	9294.2
3021.9	9868.6
3023.4	11157
3024.8	12500
3026.2	14086
3027.6	15754
3029	17393
3030.4	18017
3031.9	18787
3033.3	18651
3034.7	18351
3036.1	17826
3037.5	17153
3039	16355
3040.4	15588
3041.8	14894
3043.2	13961
3044.6	12452
3046	10782
3047.5	9109.2
3048.9	7932.1
3050.3	7271.9
3051.7	6732.2
3053.1	6366.8
3054.5	6148.4
3056	5952.7
3057.4	5919.6
3058.8	5821.1
3060.2	5836.1
3061.6	5901.7
3063.1	5760
3064.5	5659
3065.9	5714.9
3067.3	5711.6
3068.7	5736.6
3070.1	5825
3071.6	5712.9
3073	5599
3074.4	5677.2
3075.8	5698.2
3077.2	5673.2
3078.6	5777.3
3080.1	5765
3081.5	5811.6
3082.9	5521.6
3084.3	5603.4
3085.7	5427.4
3087.2	5461.2
3088.6	5414.1
3090	5348.5
3091.4	5412.7
3092.8	5382.6
3094.2	5325
3095.7	5326
3097.1	5361.5
3098.5	5352.5
3099.9	5376.9
3101.3	5392.1
3102.7	5319
3104.2	5374.9
3105.6	5305.7
3107	5430.1
3108.4	5267.5
3109.8	5314.5
3111.3	5243.5
3112.7	5176.9
3114.1	5334.3
3115.5	5359
3116.9	5291.7
3118.3	5319.9
3119.8	5321.4
3121.2	5333.4
3122.6	5270.5
3124	5337.4
3125.4	5116.4
3126.8	5176.7
3128.3	5241.4
3129.7	5270.5
3131.1	5238.8
3132.5	5153.4
3133.9	5256.6
3135.4	5295.7
3136.8	5255
3138.2	5200.7
3139.6	5200.6
3141	5287.7
3142.4	5356.7
3143.9	5209.9
3145.3	5392.7
3146.7	5295.8
3148.1	5277.4
3149.5	5310.3
3150.9	5281.9
3152.4	5285.9
3153.8	5299.5
3155.2	5279.8
3156.6	5347
3158	5317.9
3159.5	5192.8
3160.9	5288.1
3162.3	5338.4
3163.7	5297.5
3165.1	5252.6
3166.5	5214.7
3168	5347.8
3169.4	5234.2
3170.8	5247.3
3172.2	5211.8
3173.6	5346.3
3175	5448.1
3176.5	5284.8
3177.9	5256.4
3179.3	5252.1
3180.7	5251
3182.1	5311
3183.6	5256.8
3185	5292.4
3186.4	5364.8
3187.8	5266.6
3189.2	5333.5
3190.6	5376.7
3192.1	5317.9
3193.5	5265
3194.9	5256.3
3196.3	5184.7
3197.7	5277.8
3199.1	5337.6
3200.6	5332.5
3202	5355.6
3203.4	5372.2
3204.8	5320.5
3206.2	5360.4
3207.7	5487.3
3209.1	5461.3
3210.5	5401.7
3211.9	5379.6
3213.3	5381.8
3214.7	5374.5
3216.2	5352.2
3217.6	5408.2
3219	5395.5
3220.4	5393.5
3221.8	5271
3223.2	5258
3224.7	5331
3226.1	5399.8
3227.5	5416.1
3228.9	5468.2
3230.3	5404.5
3231.8	5369.9
3233.2	5386.1
3234.6	5391.7
3236	5347.2
3237.4	5471
3238.8	5448.3
3240.3	5417
3241.7	5452.1
3243.1	5477.2
3244.5	5388.3
3245.9	5415.3
3247.3	5396.3
3248.8	5379.4
3250.2	5423.5
3251.6	5502.8
3253	5400.6
3254.4	5488
3255.9	5459.8
3257.3	5410.1
3258.7	5302.2
3260.1	5414.4
3261.5	5441.9
3262.9	5411.9
3264.4	5442.7
3265.8	5503
3267.2	5544.5
3268.6	5511.2
3270	5440.5
3271.4	5416.2
3272.9	5488.2
3274.3	5540.3
3275.7	5588.5
3277.1	5528.3
3278.5	5444.1
3280	5546.2
3281.4	5499.3
3282.8	5565.4
3284.2	5443.9
3285.6	5444.2
3287	5409.4
3288.5	5502.8
3289.9	5427.2
3291.3	5519.8
3292.7	5589.9
3294.1	5509.9
3295.5	5504.3
3297	5584.2
3298.4	5512
3299.8	5513.2
3301.2	5467.8
3302.6	5559.7
3304.1	5488.5
3305.5	5480.7
3306.9	5502.4
3308.3	5520.9
3309.7	5525.6
3311.1	5593.4
3312.6	5565.1
3314	5590.7
3315.4	5454.3
3316.8	5556
3318.2	5561.5
3319.6	5524.4
3321.1	5571.2
3322.5	5598.8
3323.9	5526.6
3325.3	5623.2
3326.7	5593.7
3328.2	5504.1
3329.6	5483.5
3331	5617.9
3332.4	5613.2
3333.8	5626.3
3335.2	5544.9
3336.7	5564
3338.1	5562.5
3339.5	5676.8
3340.9	5691.1
3342.3	5628.3
3343.7	5674.7
3345.2	5590.4
3346.6	5535.1
3348	5679.8
3349.4	5597.4
3350.8	5567.7
3352.3	5521.5
3353.7	5668.6
3355.1	5675.2
3356.5	5628.9
3357.9	5673
3359.3	5718
3360.8	5751.3
3362.2	5719.8
3363.6	5649.8
3365	5712.5
3366.4	5538.7
3367.8	5589.8
3369.3	5673.8
3370.7	5726.2
3372.1	5734.7
3373.5	5669.7
3374.9	5682.6
3376.4	5772.2
3377.8	5598.3
3379.2	5666.3
3380.6	5734.8
3382	5687.8
3383.4	5739.2
3384.9	5735.6
3386.3	5803.7
3387.7	5706.4
3389.1	5698.9
3390.5	5734.6
3391.9	5648.5
3393.4	5716.5
3394.8	5755.6
3396.2	5734.9
3397.6	5685.9
3399	5806.3
3400.5	5836.3
3401.9	5751
3403.3	5781.9
3404.7	5711.8
3406.1	5591
3407.5	5741.4
3409	5746.5
3410.4	5780.7
3411.8	5799.9
3413.2	5698.3
3414.6	5764.5
3416	5696.4
3417.5	5777.8
3418.9	5813.4
3420.3	5743.4
3421.7	5751.7
3423.1	5699.3
3424.6	5771
3426	5730.5
3427.4	5826.6
3428.8	5829.9
3430.2	5861.2
3431.6	5798.2
3433.1	5744.8
3434.5	5783.7
3435.9	5788
3437.3	5724
3438.7	5819.1
3440.1	5751.2
3441.6	5710.8
3443	5824.9
3444.4	5824.1
3445.8	5797.7
3447.2	5796.1
3448.7	5842.6
3450.1	5613.7
3451.5	5832.6
3452.9	5745.8
3454.3	5816.9
3455.7	5753.6
3457.2	5903.3
3458.6	5786.1
3460	5739.1
3461.4	5724.6
3462.8	5704.6
3464.2	5867.8
3465.7	5742.1
3467.1	5766.8
3468.5	5705.6
3469.9	5801.9
3471.3	5755
3472.8	5906.4
3474.2	5821
3475.6	5752.4
3477	5793.8
3478.4	5797.7
3479.8	5842.7
3481.3	5940.9
3482.7	5873.9
3484.1	5888.6
3485.5	5763.6
3486.9	5726.4
3488.3	5707.9
3489.8	5704.2
3491.2	5828.7
3492.6	5910.2
3494	5689.7
3495.4	5829.9
3496.9	5737.9
3498.3	5734.6
3499.7	5736.9
