3502.103516	34606.765625
3501.383789	34273.375000
3500.663086	34514.292969
3499.943359	34699.585938
3499.222656	34496.050781
3498.502930	34361.992188
3497.782227	34550.683594
3497.061523	34250.128906
3496.340820	34431.835938
3495.620117	34599.613281
3494.899414	34649.433594
3494.178711	34570.949219
3493.457031	34513.289063
3492.735352	34590.820313
3492.014648	34612.878906
3491.292969	34686.902344
3490.571289	34850.972656
3489.849609	34834.875000
3489.127930	34669.863281
3488.405273	35038.148438
3487.683594	34893.925781
3486.960938	34358.605469
3486.239258	34789.054688
3485.516602	34676.085938
3484.793945	34397.082031
3484.071289	34723.531250
3483.348633	34704.007813
3482.625000	34788.234375
3481.902344	34696.097656
3481.178711	34365.460938
3480.456055	34899.023438
3479.732422	34938.234375
3479.008789	34897.957031
3478.285156	34657.320313
3477.561523	35003.960938
3476.837891	34708.128906
3476.113281	34761.140625
3475.389648	34810.683594
3474.665039	34594.417969
3473.940430	34761.312500
3473.215820	34803.925781
3472.491211	34801.671875
3471.766602	34392.367188
3471.041992	34748.878906
3470.317383	34729.390625
3469.591797	34961.605469
3468.867188	34897.269531
3468.141602	34822.613281
3467.416016	35175.312500
3466.690430	34842.210938
3465.964844	34746.929688
3465.239258	34858.343750
3464.512695	34652.882813
3463.787109	34702.296875
3463.060547	34844.648438
3462.334961	34642.730469
3461.608398	34919.265625
3460.881836	35378.093750
3460.155273	34794.281250
3459.428711	34840.175781
3458.701172	35226.558594
3457.974609	34694.636719
3457.247070	34792.097656
3456.520508	34972.031250
3455.792969	34997.230469
3455.065430	35159.882813
3454.337891	35260.636719
3453.610352	35028.113281
3452.881836	35228.464844
3452.154297	34707.535156
3451.426758	35158.535156
3450.698242	34950.207031
3449.969727	35057.753906
3449.241211	35305.980469
3448.512695	35310.484375
3447.784180	35098.835938
3447.055664	35086.214844
3446.326172	35046.164063
3445.597656	35050.703125
3444.868164	34784.371094
3444.138672	35166.046875
3443.410156	34639.281250
3442.680664	35103.101563
3441.950195	35402.300781
3441.220703	35499.269531
3440.491211	35150.910156
3439.760742	35203.363281
3439.031250	34992.136719
3438.300781	35157.578125
3437.570313	34990.921875
3436.839844	35320.589844
3436.109375	35242.933594
3435.378906	34747.886719
3434.647461	34786.656250
3433.916992	35232.425781
3433.185547	35479.707031
3432.455078	34957.589844
3431.723633	34972.363281
3430.992188	35175.125000
3430.260742	35148.847656
3429.529297	35290.003906
3428.796875	35209.054688
3428.065430	35309.164063
3427.333008	34896.953125
3426.600586	34887.812500
3425.869141	34953.781250
3425.136719	35180.164063
3424.404297	35143.671875
3423.670898	35004.820313
3422.938477	35135.546875
3422.206055	35034.261719
3421.472656	35246.800781
3420.739258	35363.781250
3420.006836	35126.117188
3419.273438	35202.167969
3418.540039	34749.871094
3417.805664	35429.167969
3417.072266	35123.500000
3416.338867	35185.867188
3415.604492	35203.933594
3414.870117	35143.660156
3414.136719	35134.484375
3413.402344	35264.898438
3412.667969	35582.492188
3411.933594	35372.437500
3411.198242	35557.195313
3410.463867	35660.230469
3409.728516	35647.570313
3408.994141	35219.957031
3408.258789	35574.648438
3407.523438	35106.386719
3406.788086	35301.195313
3406.052734	35006.476563
3405.316406	34939.554688
3404.581055	35324.574219
3403.845703	35087.753906
3403.109375	35075.195313
3402.373047	35293.582031
3401.636719	35362.488281
3400.900391	35502.667969
3400.164063	35540.964844
3399.427734	35175.363281
3398.690430	35359.613281
3397.954102	35272.375000
3397.216797	35649.910156
3396.479492	35338.792969
3395.743164	35292.292969
3395.004883	35391.601563
3394.267578	35002.707031
3393.530273	35020.679688
3392.792969	34957.312500
3392.054688	35595.367188
3391.317383	35545.472656
3390.579102	35485.433594
3389.840820	35394.933594
3389.102539	35165.628906
3388.364258	35410.382813
3387.625000	35008.507813
3386.886719	35097.519531
3386.148438	35230.492188
3385.409180	35153.652344
3384.669922	35706.042969
3383.930664	35182.679688
3383.191406	35359.511719
3382.452148	35519.375000
3381.712891	35398.593750
3380.973633	35189.968750
3380.233398	35319.363281
3379.493164	35536.566406
3378.753906	35412.480469
3378.013672	35433.679688
3377.273438	35356.929688
3376.533203	35455.792969
3375.791992	35628.902344
3375.051758	35140.328125
3374.311523	35326.925781
3373.570313	35695.687500
3372.829102	35504.250000
3372.087891	36034.781250
3371.346680	35455.468750
3370.605469	35051.707031
3369.864258	35420.203125
3369.123047	35535.742188
3368.380859	35162.496094
3367.638672	35358.917969
3366.897461	35400.273438
3366.155273	35279.906250
3365.413086	35543.574219
3364.670898	35615.187500
3363.927734	35498.207031
3363.185547	35691.003906
3362.443359	35281.187500
3361.700195	35208.070313
3360.957031	35235.929688
3360.213867	35394.992188
3359.470703	35358.890625
3358.727539	35699.507813
3357.984375	35364.070313
3357.241211	35146.425781
3356.497070	35412.945313
3355.752930	35507.953125
3355.009766	35451.699219
3354.265625	35166.972656
3353.521484	35621.445313
3352.777344	35706.277344
3352.032227	35811.226563
3351.288086	35439.320313
3350.542969	35631.570313
3349.798828	35545.144531
3349.053711	35633.265625
3348.308594	35436.125000
3347.563477	35460.488281
3346.818359	35585.480469
3346.073242	35160.367188
3345.327148	35218.292969
3344.582031	35487.437500
3343.835938	35488.296875
3343.090820	35670.156250
3342.344727	35744.714844
3341.598633	35340.093750
3340.851563	35813.347656
3340.105469	35784.003906
3339.359375	35691.035156
3338.612305	35822.445313
3337.866211	35471.707031
3337.119141	35425.695313
3336.372070	35597.242188
3335.625000	35256.750000
3334.877930	35391.464844
3334.130859	35917.523438
3333.382813	35821.300781
3332.635742	35404.074219
3331.887695	35669.074219
3331.139648	34974.539063
3330.391602	35189.378906
3329.643555	35430.882813
3328.895508	35521.945313
3328.147461	35719.882813
3327.398438	35520.261719
3326.650391	35764.886719
3325.901367	35735.621094
3325.152344	35409.226563
3324.404297	35440.109375
3323.654297	35651.207031
3322.905273	36079.136719
3322.156250	35536.031250
3321.407227	35917.132813
3320.657227	35987.925781
3319.907227	35411.753906
3319.158203	35552.621094
3318.408203	35570.097656
3317.658203	35244.257813
3316.907227	35438.402344
3316.157227	35649.140625
3315.407227	35473.363281
3314.656250	35753.972656
3313.905273	35618.195313
3313.155273	35858.730469
3312.404297	36152.453125
3311.653320	35557.308594
3310.901367	35724.511719
3310.150391	35459.070313
3309.399414	35280.214844
3308.647461	35962.988281
3307.895508	35534.660156
3307.144531	35788.183594
3306.392578	35669.238281
3305.640625	35783.031250
3304.887695	35657.476563
3304.135742	35389.058594
3303.383789	35592.554688
3302.630859	35536.851563
3301.877930	35411.414063
3301.125000	35312.585938
3300.372070	35276.878906
3299.619141	35875.289063
3298.866211	35232.046875
3298.113281	35936.468750
3297.359375	35602.031250
3296.606445	35523.167969
3295.852539	35646.679688
3295.098633	35610.949219
3294.344727	35568.597656
3293.590820	35877.707031
3292.836914	35523.710938
3292.082031	35328.925781
3291.328125	35356.238281
3290.573242	35270.882813
3289.818359	35278.316406
3289.064453	35653.406250
3288.309570	35683.953125
3287.553711	35525.750000
3286.798828	35738.390625
3286.043945	35646.429688
3285.288086	35670.335938
3284.533203	35671.066406
3283.777344	35423.660156
3283.021484	35940.464844
3282.265625	35815.468750
3281.509766	35786.410156
3280.752930	35843.324219
3279.997070	36019.222656
3279.240234	35709.199219
3278.484375	35782.617188
3277.727539	35512.382813
3276.970703	35242.238281
3276.213867	35791.324219
3275.457031	35725.968750
3274.700195	35594.597656
3273.942383	35681.160156
3273.185547	35642.261719
3272.427734	35121.535156
3271.669922	35432.507813
3270.912109	35522.335938
3270.154297	35664.910156
3269.396484	35385.277344
3268.637695	35260.722656
3267.879883	35571.414063
3267.121094	35888.593750
3266.363281	35731.054688
3265.604492	35530.726563
3264.845703	35864.226563
3264.086914	35614.523438
3263.328125	35582.292969
3262.568359	35332.718750
3261.809570	35353.222656
3261.049805	35614.046875
3260.290039	35469.917969
3259.530273	35753.667969
3258.770508	35576.656250
3258.010742	35781.335938
3257.250977	35903.710938
3256.491211	35519.562500
3255.730469	35641.937500
3254.970703	35567.003906
3254.209961	35814.246094
3253.449219	35499.378906
3252.688477	35457.367188
3251.927734	35467.933594
3251.166016	35665.746094
3250.405273	35669.707031
3249.643555	35532.453125
3248.882813	35644.785156
3248.121094	35727.531250
3247.359375	35813.535156
3246.597656	35417.082031
3245.835938	35240.601563
3245.073242	35795.777344
3244.311523	35455.285156
3243.548828	35541.253906
3242.787109	35676.378906
3242.024414	36106.527344
3241.261719	35933.382813
3240.499023	35819.285156
3239.736328	35420.132813
3238.972656	35558.437500
3238.209961	35195.496094
3237.446289	35402.570313
3236.682617	35786.410156
3235.919922	36078.445313
3235.156250	35997.187500
3234.391602	36066.515625
3233.627930	35815.109375
3232.864258	35733.929688
3232.099609	35613.519531
3231.335938	35679.589844
3230.571289	35287.781250
3229.806641	35667.789063
3229.041992	35972.476563
3228.277344	36022.097656
3227.511719	36166.480469
3226.747070	35836.992188
3225.981445	36183.921875
3225.216797	35978.671875
3224.451172	35538.328125
3223.685547	35963.503906
3222.919922	35840.011719
3222.154297	35778.589844
3221.387695	35710.652344
3220.622070	35995.187500
3219.855469	36207.843750
3219.089844	36146.394531
3218.323242	35967.539063
3217.556641	35736.562500
3216.790039	35711.085938
3216.022461	35936.648438
3215.255859	36035.007813
3214.489258	35983.417969
3213.721680	35798.242188
3212.954102	35951.960938
3212.186523	35711.472656
3211.418945	35786.988281
3210.651367	35956.906250
3209.883789	35921.652344
3209.115234	35359.050781
3208.347656	35734.007813
3207.579102	35640.226563
3206.810547	35741.699219
3206.041992	35739.035156
3205.273438	35694.085938
3204.504883	35867.042969
3203.736328	36179.753906
3202.966797	36033.972656
3202.198242	35845.980469
3201.428711	35898.542969
3200.659180	35509.171875
3199.889648	35766.449219
3199.120117	35451.937500
3198.350586	35663.667969
3197.581055	35462.929688
3196.810547	35603.156250
3196.041016	35392.753906
3195.270508	35980.839844
3194.500000	35776.929688
3193.729492	35599.046875
3192.958984	35596.394531
3192.187500	35918.085938
3191.416992	35711.074219
3190.645508	35915.914063
3189.875000	36230.910156
3189.103516	35865.121094
3188.332031	35836.496094
3187.560547	35869.441406
3186.789063	35792.226563
3186.016602	35698.839844
3185.245117	35560.140625
3184.472656	35602.820313
3183.701172	35749.085938
3182.928711	35529.519531
3182.156250	35869.933594
3181.383789	35789.566406
3180.611328	35447.152344
3179.837891	35632.136719
3179.065430	35813.820313
3178.291992	35714.105469
3177.518555	35649.988281
3176.745117	35530.933594
3175.971680	35748.066406
3175.198242	36246.281250
3174.424805	36033.480469
3173.650391	36201.960938
3172.876953	36021.535156
3172.102539	36002.648438
3171.328125	36171.042969
3170.553711	35758.261719
3169.779297	35910.503906
3169.004883	36304.742188
3168.230469	36040.578125
3167.455078	36099.128906
3166.680664	36328.625000
3165.905273	36612.871094
3165.129883	36323.027344
3164.354492	36281.539063
3163.579102	36423.808594
3162.803711	36124.464844
3162.027344	36360.167969
3161.251953	36476.574219
3160.475586	36402.875000
3159.699219	36677.058594
3158.922852	36886.746094
3158.146484	36864.527344
3157.370117	37247.957031
3156.593750	36948.863281
3155.816406	37168.015625
3155.040039	36872.250000
3154.262695	37155.683594
3153.485352	36605.902344
3152.708008	36493.695313
3151.930664	36667.714844
3151.153320	36410.855469
3150.375000	36507.679688
3149.597656	36440.554688
3148.819336	36608.039063
3148.041992	36582.687500
3147.263672	36110.816406
3146.485352	35802.906250
3145.706055	36397.488281
3144.927734	36417.132813
3144.149414	36334.042969
3143.370117	36414.675781
3142.590820	36450.351563
3141.812500	35876.363281
3141.033203	36149.519531
3140.252930	36348.808594
3139.473633	36438.984375
3138.694336	36089.835938
3137.914063	36224.910156
3137.134766	35936.812500
3136.354492	36379.542969
3135.574219	36306.210938
3134.793945	36091.929688
3134.013672	36207.664063
3133.233398	36134.394531
3132.452148	36333.339844
3131.671875	36330.507813
3130.890625	35901.914063
3130.109375	36331.246094
3129.328125	36117.203125
3128.546875	36344.781250
3127.765625	36441.117188
3126.984375	36486.242188
3126.202148	36301.089844
3125.419922	36227.914063
3124.638672	36426.503906
3123.856445	36765.671875
3123.074219	36417.597656
3122.291992	36104.792969
3121.508789	36229.785156
3120.726563	36418.621094
3119.943359	36460.476563
3119.161133	36700.300781
3118.377930	36461.136719
3117.594727	36544.460938
3116.811523	36324.542969
3116.028320	36513.167969
3115.244141	37059.082031
3114.460938	36934.890625
3113.676758	37257.277344
3112.892578	37069.312500
3112.108398	37563.746094
3111.324219	37751.968750
3110.540039	37401.453125
3109.755859	37672.496094
3108.971680	38141.007813
3108.186523	38370.421875
3107.401367	38488.273438
3106.617188	38179.320313
3105.832031	37956.441406
3105.046875	38128.421875
3104.260742	38166.648438
3103.475586	38510.398438
3102.689453	38449.902344
3101.904297	38707.582031
3101.118164	38666.156250
3100.332031	38564.308594
3099.545898	38891.800781
3098.759766	39025.234375
3097.973633	39050.535156
3097.186523	39447.703125
3096.400391	39371.230469
3095.613281	39625.226563
3094.826172	39599.578125
3094.039063	40110.734375
3093.251953	39748.375000
3092.464844	40414.921875
3091.677734	41065.371094
3090.889648	41287.085938
3090.101563	41654.714844
3089.314453	42044.433594
3088.526367	42373.738281
3087.738281	43413.484375
3086.950195	43796.367188
3086.161133	44629.410156
3085.373047	45769.714844
3084.583984	45860.371094
3083.795898	46470.789063
3083.006836	47407.402344
3082.217773	48045.871094
3081.428711	49099.121094
3080.638672	49980.980469
3079.849609	51093.722656
3079.060547	51199.207031
3078.270508	51557.917969
3077.480469	51701.269531
3076.690430	52385.738281
3075.900391	52082.750000
3075.110352	51748.222656
3074.320313	51489.722656
3073.529297	51294.558594
3072.739258	50375.335938
3071.948242	49529.136719
3071.157227	49261.683594
3070.366211	48776.246094
3069.575195	47892.808594
3068.784180	47742.660156
3067.992188	46894.433594
3067.201172	46450.765625
3066.409180	45694.613281
3065.617188	45175.511719
3064.825195	44583.976563
3064.033203	43882.164063
3063.241211	43013.328125
3062.449219	43006.164063
3061.656250	42806.566406
3060.864258	41932.027344
3060.071289	41603.371094
3059.278320	41464.007813
3058.485352	41009.429688
3057.692383	40756.734375
3056.898438	39810.773438
3056.105469	40122.398438
3055.311523	39561.222656
3054.518555	39497.933594
3053.724609	39229.945313
3052.930664	39166.730469
3052.136719	38879.992188
3051.342773	38716.121094
3050.547852	38577.480469
3049.753906	38486.085938
3048.958984	38536.308594
3048.164063	38857.050781
3047.369141	38212.085938
3046.574219	37979.292969
3045.779297	37935.234375
3044.984375	38079.812500
3044.188477	37803.152344
3043.393555	37913.128906
3042.597656	38004.214844
3041.801758	38258.636719
3041.005859	38158.027344
3040.209961	38145.386719
3039.414063	38073.085938
3038.617188	38248.832031
3037.821289	38788.644531
3037.024414	38684.882813
3036.227539	38979.679688
3035.430664	38383.343750
3034.633789	38750.234375
3033.836914	38982.140625
3033.040039	39157.519531
3032.242188	38865.675781
3031.445313	38385.835938
3030.647461	38887.191406
3029.849609	38548.527344
3029.051758	38369.769531
3028.253906	38225.531250
3027.455078	38269.273438
3026.657227	38040.539063
3025.858398	38043.589844
3025.060547	37933.933594
3024.261719	37483.128906
3023.462891	37001.179688
3022.664063	37195.269531
3021.864258	37429.960938
3021.065430	37239.164063
3020.265625	36813.867188
3019.466797	37064.136719
3018.666992	36732.800781
3017.867188	36432.835938
3017.067383	36792.429688
3016.267578	36442.550781
3015.466797	36458.343750
3014.666992	36324.179688
3013.866211	36177.570313
3013.065430	36405.742188
3012.264648	36540.171875
3011.463867	36274.964844
3010.663086	36587.277344
3009.862305	36422.015625
3009.060547	36406.574219
3008.259766	36646.953125
3007.458008	36525.429688
3006.656250	36391.468750
3005.854492	36491.410156
3005.052734	37027.781250
3004.250977	36747.296875
3003.448242	36769.210938
3002.646484	36420.304688
3001.843750	36573.117188
3001.041016	36884.742188
3000.238281	36729.085938
2999.435547	37031.238281
2998.632813	37006.375000
2997.830078	37084.242188
2997.026367	37261.679688
2996.222656	37196.332031
2995.419922	36944.324219
2994.616211	36910.156250
2993.812500	37239.906250
2993.007813	37134.171875
2992.204102	37348.730469
2991.400391	37438.863281
2990.595703	37622.210938
2989.791016	37342.449219
2988.986328	37255.421875
2988.181641	37466.667969
2987.376953	37562.910156
2986.572266	37323.710938
2985.766602	38062.707031
2984.961914	37478.890625
2984.156250	37702.332031
2983.350586	37686.722656
2982.544922	37633.878906
2981.739258	37857.179688
2980.933594	37742.281250
2980.126953	37875.542969
2979.321289	37605.628906
2978.514648	37986.902344
2977.708008	37735.656250
2976.901367	37503.089844
2976.094727	37341.878906
2975.288086	37936.722656
2974.481445	37419.234375
2973.673828	37877.582031
2972.867188	37567.761719
2972.059570	37391.183594
2971.251953	37459.230469
2970.444336	37171.296875
2969.636719	37143.417969
2968.828125	37084.605469
2968.020508	37363.031250
2967.211914	37273.265625
2966.403320	37161.882813
2965.594727	36957.765625
2964.786133	36991.777344
2963.977539	37130.875000
2963.168945	36741.429688
2962.360352	37031.933594
2961.550781	36902.156250
2960.741211	37263.585938
2959.931641	37306.769531
2959.122070	37158.480469
2958.312500	37121.390625
2957.502930	37007.132813
2956.693359	37204.652344
2955.882813	37331.125000
2955.072266	37241.574219
2954.261719	37355.656250
2953.451172	37627.003906
2952.640625	38148.058594
2951.830078	38117.007813
2951.019531	38443.582031
2950.208008	38492.632813
2949.396484	39071.742188
2948.585938	39496.593750
2947.774414	39727.207031
2946.962891	40056.312500
2946.150391	40607.050781
2945.338867	41588.703125
2944.527344	42551.550781
2943.714844	43116.980469
2942.902344	44063.859375
2942.089844	44884.257813
2941.277344	45793.597656
2940.464844	46785.695313
2939.652344	47802.058594
2938.838867	48904.187500
2938.026367	49775.347656
2937.212891	49893.050781
2936.399414	50198.207031
2935.585938	50269.703125
2934.772461	48844.824219
2933.958008	48342.042969
2933.144531	48118.941406
2932.330078	46790.335938
2931.516602	45806.074219
2930.702148	44530.488281
2929.887695	43755.656250
2929.073242	42947.324219
2928.257813	42096.300781
2927.443359	41374.417969
2926.627930	40735.593750
2925.813477	40563.156250
2924.998047	39756.027344
2924.182617	39727.906250
2923.367188	39788.691406
2922.550781	39208.894531
2921.735352	38963.304688
2920.918945	38987.414063
2920.103516	38784.828125
2919.287109	38870.214844
2918.470703	39059.691406
2917.654297	38590.812500
2916.836914	38168.011719
2916.020508	38626.851563
2915.204102	38311.292969
2914.386719	38206.960938
2913.569336	38240.328125
2912.751953	38255.332031
2911.934570	37823.828125
2911.117188	37435.277344
2910.298828	37273.085938
2909.481445	37162.910156
2908.663086	36823.562500
2907.844727	36282.652344
2907.026367	36548.476563
2906.208008	36136.085938
2905.389648	35968.156250
2904.571289	36096.484375
2903.751953	35840.082031
2902.933594	35556.289063
2902.114258	35681.562500
2901.294922	35172.074219
2900.475586	35038.035156
2899.656250	35187.734375
2898.835938	35123.882813
2898.016602	34590.429688
2897.196289	34825.496094
2896.376953	34776.976563
2895.556641	34883.917969
2894.736328	34823.214844
2893.915039	34665.027344
2893.094727	34759.742188
2892.274414	34592.476563
2891.453125	34391.769531
2890.631836	34087.597656
2889.810547	34374.140625
2888.989258	34605.796875
2888.167969	34542.164063
2887.346680	34204.699219
2886.524414	34685.734375
2885.703125	34269.265625
2884.880859	34616.308594
2884.058594	34327.703125
2883.236328	34583.410156
2882.414063	34656.640625
2881.591797	34720.726563
2880.768555	34657.160156
2879.946289	34323.210938
2879.123047	34405.546875
2878.299805	34089.972656
2877.476563	34491.171875
2876.653320	34114.960938
2875.830078	34142.628906
2875.005859	34674.125000
2874.182617	34328.417969
2873.358398	34477.398438
2872.534180	34520.148438
2871.709961	34286.863281
2870.885742	34153.734375
2870.060547	34132.839844
2869.236328	34284.753906
2868.411133	34275.964844
2867.586914	34455.074219
2866.761719	34400.808594
2865.936523	34179.929688
2865.111328	34365.019531
2864.286133	34010.960938
2863.459961	34359.531250
2862.634766	34159.996094
2861.808594	33993.824219
2860.982422	33764.148438
2860.156250	33861.363281
2859.330078	33822.394531
2858.503906	33934.687500
2857.676758	34361.488281
2856.850586	34171.253906
2856.023438	33784.550781
2855.196289	34081.171875
2854.369141	34018.015625
2853.541992	33994.167969
2852.714844	34021.691406
2851.886719	33928.367188
2851.059570	33874.335938
2850.231445	33624.027344
2849.403320	33751.234375
2848.575195	33775.750000
2847.747070	33631.222656
2846.918945	33685.929688
2846.089844	33616.902344
2845.261719	33439.285156
2844.432617	33113.925781
2843.603516	33198.835938
2842.774414	33123.902344
2841.945313	33263.046875
2841.116211	33507.644531
2840.286133	33227.750000
2839.457031	33366.804688
2838.626953	32698.367188
2837.796875	32759.140625
2836.966797	32871.093750
2836.136719	32916.757813
2835.306641	32920.253906
2834.476563	33056.199219
2833.645508	33134.914063
2832.814453	33054.109375
2831.984375	32928.199219
2831.153320	32847.449219
2830.321289	32835.910156
2829.490234	33037.886719
2828.659180	32833.882813
2827.827148	32732.158203
2826.995117	32747.691406
2826.164063	32661.041016
2825.332031	32478.265625
2824.500000	32457.779297
2823.666992	32608.511719
2822.834961	32642.066406
2822.001953	32705.634766
2821.169922	32721.146484
2820.336914	32658.607422
2819.503906	32151.908203
2818.670898	32242.519531
2817.836914	32306.097656
2817.003906	32543.634766
2816.169922	32508.164063
2815.336914	32190.830078
2814.502930	32248.373047
2813.668945	32111.044922
2812.834961	32102.642578
2812.000000	32265.050781
2811.166016	32529.271484
2810.331055	32730.496094
2809.497070	32464.406250
2808.662109	32294.234375
2807.827148	32172.025391
2806.992188	31945.078125
2806.156250	32493.427734
2805.321289	32664.519531
2804.485352	32539.333984
2803.650391	32237.683594
2802.814453	32160.466797
2801.978516	32101.218750
2801.142578	32027.039063
2800.305664	32296.687500
2799.469727	32300.214844
2798.632813	32492.019531
2797.795898	31868.011719
2796.959961	32236.089844
2796.123047	32066.369141
2795.285156	31887.744141
2794.448242	31819.664063
2793.611328	31960.595703
2792.773438	32274.613281
2791.935547	31994.593750
2791.097656	32060.820313
2790.259766	32097.187500
2789.421875	32112.658203
2788.583984	31943.205078
2787.745117	31899.054688
2786.907227	32460.173828
2786.068359	31944.941406
2785.229492	32246.554688
2784.390625	32157.675781
2783.551758	31878.136719
2782.712891	32265.996094
2781.873047	31921.003906
2781.033203	31817.345703
2780.194336	31922.150391
2779.354492	31770.894531
2778.514648	31741.724609
2777.673828	32093.496094
2776.833984	31725.068359
2775.994141	32008.296875
2775.153320	32101.058594
2774.312500	32086.722656
2773.471680	31834.507813
2772.630859	31870.761719
2771.790039	31877.275391
2770.949219	31895.675781
2770.107422	31931.896484
2769.265625	32072.089844
2768.424805	31879.537109
2767.583008	31883.068359
2766.741211	32201.365234
2765.898438	31691.201172
2765.056641	31979.736328
2764.213867	31864.525391
2763.372070	31894.757813
2762.529297	32040.693359
2761.686523	32213.277344
2760.843750	32071.404297
2760.000977	31885.095703
2759.157227	31618.794922
2758.314453	31640.138672
2757.470703	32082.363281
2756.626953	31833.941406
2755.783203	31781.160156
2754.939453	32018.720703
2754.095703	32419.109375
2753.250977	31972.373047
2752.407227	32263.076172
2751.562500	32396.773438
2750.717773	32610.343750
2749.873047	32616.675781
2749.028320	32516.480469
2748.183594	32682.582031
2747.337891	32227.447266
2746.493164	32136.238281
2745.647461	32349.628906
2744.801758	32438.773438
2743.956055	31658.822266
2743.110352	31706.673828
2742.263672	32058.875000
2741.417969	32292.775391
2740.571289	31811.726563
2739.725586	31886.097656
2738.878906	31535.208984
2738.032227	31456.068359
2737.184570	31297.250000
2736.337891	31849.798828
2735.491211	31788.347656
2734.643555	31611.847656
2733.795898	31703.857422
2732.948242	31430.093750
2732.100586	31076.796875
2731.252930	31325.119141
2730.404297	31467.226563
2729.556641	31170.103516
2728.708008	31188.412109
2727.859375	31324.574219
2727.010742	31142.517578
2726.162109	31090.125000
2725.313477	31164.386719
2724.464844	31430.015625
2723.615234	31027.257813
2722.765625	31198.625000
2721.916992	31102.117188
2721.067383	31296.951172
2720.216797	31003.339844
2719.367188	31051.044922
2718.517578	31107.558594
2717.666992	30869.994141
2716.816406	31249.921875
2715.966797	31162.330078
2715.116211	30936.628906
2714.264648	30990.169922
2713.414063	30943.794922
2712.563477	30653.617188
2711.711914	31326.898438
2710.860352	31227.628906
2710.008789	31178.304688
2709.157227	30958.732422
2708.305664	30965.236328
2707.454102	30980.539063
2706.601563	30869.671875
2705.750000	30767.640625
2704.897461	30935.488281
2704.044922	30639.925781
2703.192383	31045.236328
2702.338867	30823.042969
2701.486328	30894.037109
2700.633789	30695.388672
2699.780273	30696.052734
2698.926758	30966.244141
2698.073242	30706.167969
2697.219727	30920.619141
2696.366211	30739.697266
2695.511719	30708.146484
2694.658203	30667.822266
2693.803711	30964.076172
2692.949219	30926.646484
2692.094727	30614.216797
2691.240234	30866.449219
2690.385742	31092.273438
2689.530273	30861.845703
2688.675781	30654.886719
2687.820313	30696.466797
2686.964844	31103.369141
2686.109375	31054.269531
2685.253906	30894.160156
2684.397461	30678.601563
2683.541992	31120.275391
2682.685547	30822.982422
2681.829102	30867.398438
2680.972656	30926.392578
2680.116211	31026.228516
2679.259766	30740.822266
2678.403320	30753.121094
2677.545898	31176.748047
2676.688477	30701.867188
2675.832031	30448.783203
2674.974609	30808.095703
2674.117188	30517.179688
2673.258789	30051.470703
2672.401367	29979.351563
2671.542969	30318.099609
2670.685547	30659.644531
2669.827148	30602.019531
2668.968750	30334.724609
2668.109375	30149.048828
2667.250977	30487.476563
2666.392578	30301.837891
2665.533203	30372.371094
2664.673828	30076.236328
2663.814453	30594.824219
2662.955078	30074.767578
2662.095703	30180.187500
2661.236328	30381.531250
2660.375977	30353.121094
2659.516602	30097.982422
2658.656250	30153.912109
2657.795898	30122.646484
2656.935547	30239.566406
2656.074219	30007.855469
2655.213867	30026.001953
2654.352539	29788.593750
2653.492188	29821.287109
2652.630859	29885.900391
2651.769531	30237.833984
2650.908203	29852.548828
2650.045898	29940.332031
2649.184570	29856.925781
2648.322266	29521.205078
2647.460938	29666.998047
2646.598633	29835.935547
2645.736328	29775.791016
2644.873047	29811.320313
2644.010742	29739.607422
2643.147461	29969.261719
2642.285156	29700.544922
2641.421875	29504.332031
2640.558594	29890.294922
2639.695313	29835.998047
2638.832031	29544.320313
2637.967773	29579.830078
2637.104492	29846.855469
2636.240234	29407.748047
2635.375977	29454.833984
2634.511719	29337.021484
2633.647461	29803.458984
2632.783203	29572.851563
2631.917969	29556.265625
2631.053711	29354.683594
2630.188477	29413.283203
2629.323242	29682.808594
2628.458008	29920.460938
2627.592773	30042.484375
2626.726563	29719.679688
2625.861328	29789.712891
2624.995117	29565.224609
2624.128906	29499.582031
2623.262695	29797.628906
2622.396484	29708.880859
2621.530273	29637.474609
2620.664063	29413.197266
2619.796875	29719.703125
2618.929688	29850.193359
2618.062500	29992.171875
2617.195313	29569.068359
2616.328125	29705.279297
2615.460938	29858.732422
2614.592773	29634.677734
2613.725586	29765.042969
2612.857422	29791.669922
2611.989258	29881.642578
2611.121094	29888.082031
2610.252930	29963.613281
2609.383789	29506.609375
2608.515625	29731.830078
2607.646484	29778.570313
2606.777344	29393.751953
2605.908203	29768.447266
2605.039063	29628.216797
2604.169922	29594.425781
2603.300781	29635.394531
2602.430664	29475.134766
2601.560547	29381.029297
2600.690430	29479.480469
2599.820313	29063.625000
2598.950195	29515.417969
2598.080078	29326.587891
2597.208984	29206.738281
2596.338867	29124.251953
2595.467773	29010.216797
2594.596680	29163.138672
2593.725586	29258.615234
2592.853516	29471.693359
2591.982422	29168.341797
2591.110352	29249.425781
2590.239258	29129.744141
2589.367188	29219.406250
2588.495117	29486.771484
2587.623047	28991.634766
2586.750000	29247.482422
2585.877930	29256.832031
2585.004883	29432.332031
2584.132813	28877.388672
2583.259766	29410.863281
2582.386719	29179.660156
2581.512695	29051.593750
2580.639648	28975.091797
2579.765625	28847.103516
2578.892578	28784.966797
2578.018555	28731.433594
2577.144531	29178.480469
2576.270508	28904.685547
2575.395508	28679.593750
2574.521484	29063.521484
2573.646484	28741.291016
2572.772461	28804.988281
2571.897461	28557.201172
2571.022461	28583.765625
2570.146484	28901.679688
2569.271484	28611.162109
2568.396484	28646.267578
2567.520508	29026.814453
2566.644531	28756.400391
2565.768555	28209.238281
2564.892578	28583.955078
2564.016602	28787.361328
2563.139648	28648.386719
2562.263672	28634.951172
2561.386719	28390.539063
2560.509766	28462.683594
2559.632813	28571.861328
2558.755859	28435.886719
2557.877930	28547.878906
2557.000977	28580.054688
2556.123047	28435.599609
2555.245117	28322.523438
2554.367188	28542.666016
2553.489258	28557.734375
2552.611328	28384.910156
2551.733398	28397.150391
2550.854492	28355.316406
2549.975586	28205.373047
2549.096680	28541.943359
2548.217773	28340.820313
2547.338867	28608.998047
2546.459961	28197.523438
2545.580078	28258.101563
2544.701172	28531.837891
2543.821289	28120.583984
2542.941406	28019.181641
2542.061523	28074.064453
2541.181641	28228.341797
2540.300781	28308.728516
2539.420898	27866.623047
2538.540039	28071.955078
2537.659180	27959.306641
2536.778320	27928.996094
2535.897461	27995.171875
2535.015625	28126.576172
2534.134766	28167.164063
2533.252930	28250.279297
2532.371094	28202.925781
2531.489258	27823.878906
2530.607422	28147.951172
2529.725586	28145.984375
2528.843750	28064.673828
2527.960938	27782.232422
2527.078125	27596.199219
2526.195313	27696.283203
2525.312500	27770.847656
2524.429688	27882.189453
2523.546875	27900.078125
2522.663086	27544.361328
2521.780273	27604.746094
2520.896484	28276.244141
2520.012695	28231.814453
2519.128906	28119.517578
2518.245117	27764.062500
2517.360352	27844.144531
2516.476563	27887.449219
2515.591797	28221.861328
2514.707031	28135.089844
2513.822266	27997.490234
2512.937500	28049.210938
2512.051758	27970.984375
2511.166992	27799.591797
2510.281250	27817.433594
2509.395508	27318.650391
2508.509766	27551.082031
2507.624023	27729.812500
2506.738281	27634.785156
2505.851563	27714.699219
2504.965820	27552.009766
2504.079102	27758.816406
2503.192383	27706.140625
2502.305664	27585.820313
2501.418945	27919.355469
2500.532227	27427.031250
2499.644531	27551.962891
2498.756836	27910.683594
2497.870117	27835.494141
2496.982422	27675.841797
2496.093750	27659.849609
2495.206055	27596.001953
2494.318359	27760.177734
2493.429688	27606.271484
2492.541016	27846.363281
2491.652344	27473.046875
2490.763672	27676.509766
2489.875000	27539.593750
2488.986328	27160.894531
2488.096680	27493.630859
2487.207031	27365.246094
2486.318359	27444.884766
2485.427734	27392.421875
2484.538086	27429.882813
2483.648438	27329.683594
2482.758789	27501.955078
2481.868164	27553.414063
2480.977539	27279.169922
2480.086914	26990.980469
2479.196289	27309.134766
2478.305664	27624.373047
2477.414063	27358.714844
2476.523438	27774.824219
2475.631836	27413.867188
2474.740234	27535.373047
2473.848633	27511.035156
2472.957031	27388.589844
2472.065430	27711.839844
2471.172852	27370.814453
2470.280273	27284.876953
2469.388672	27588.365234
2468.496094	27522.023438
2467.602539	27604.128906
2466.709961	27271.808594
2465.817383	27205.552734
2464.923828	27144.917969
2464.030273	27280.199219
2463.136719	27309.107422
2462.243164	27290.445313
2461.349609	27210.253906
2460.456055	27186.019531
2459.561523	27172.978516
2458.666992	27252.197266
2457.773438	27437.605469
2456.878906	27343.478516
2455.983398	27355.562500
2455.088867	27272.654297
2454.194336	27047.316406
2453.298828	26922.593750
2452.403320	26998.962891
2451.507813	26980.380859
2450.612305	26850.148438
2449.716797	27409.310547
2448.820313	26913.503906
2447.924805	27101.400391
2447.028320	26697.867188
2446.131836	27055.861328
2445.235352	26811.416016
2444.338867	26923.919922
2443.442383	26810.593750
2442.544922	26803.214844
2441.647461	26862.714844
2440.750000	26905.476563
2439.852539	26834.011719
2438.955078	26885.117188
2438.057617	26766.339844
2437.160156	27045.742188
2436.261719	26787.789063
2435.363281	26836.080078
2434.464844	26650.601563
2433.566406	27021.642578
2432.667969	26808.375000
2431.768555	26923.378906
2430.870117	27082.835938
2429.970703	26766.789063
2429.071289	26726.062500
2428.171875	26632.539063
2427.272461	26666.878906
2426.373047	26804.009766
2425.472656	26854.974609
2424.572266	26572.617188
2423.672852	26531.960938
2422.772461	26710.664063
2421.871094	26989.248047
2420.970703	27006.824219
2420.070313	26583.144531
2419.168945	26814.433594
2418.267578	26551.833984
2417.366211	26644.361328
2416.464844	26442.890625
2415.563477	26363.490234
2414.661133	26228.669922
2413.759766	26606.681641
2412.857422	26491.263672
2411.955078	26201.320313
2411.052734	26446.160156
2410.150391	26488.710938
2409.248047	26074.289063
2408.344727	26205.494141
2407.441406	26134.554688
2406.538086	26160.517578
2405.634766	26039.791016
2404.731445	26234.550781
2403.828125	26307.513672
2402.923828	26377.683594
2402.020508	26315.078125
2401.116211	25934.498047
2400.211914	26007.457031
2399.307617	26240.716797
2398.403320	26211.337891
2397.498047	26228.943359
2396.593750	25776.869141
2395.688477	26142.593750
2394.783203	26066.296875
2393.877930	25835.388672
2392.972656	25720.517578
2392.066406	25834.798828
2391.161133	25805.521484
2390.254883	26077.037109
2389.348633	25898.742188
2388.442383	25930.154297
2387.536133	25774.007813
2386.629883	25860.582031
2385.722656	25740.341797
2384.815430	25796.564453
2383.909180	25588.177734
2383.001953	25578.271484
2382.093750	25557.345703
2381.186523	25866.994141
2380.279297	25581.615234
2379.371094	26004.056641
2378.462891	25897.714844
2377.554688	25551.912109
2376.646484	25952.121094
2375.738281	25686.230469
2374.829102	25458.949219
2373.920898	25680.152344
2373.011719	25656.484375
2372.102539	25412.824219
2371.193359	25752.148438
2370.284180	25481.062500
2369.375000	25394.224609
2368.464844	25367.873047
2367.554688	25154.691406
2366.644531	25518.486328
2365.734375	25722.847656
2364.824219	25589.353516
2363.914063	25387.257813
2363.002930	25330.732422
2362.092773	25518.513672
2361.181641	25632.130859
2360.270508	25759.427734
2359.359375	25272.160156
2358.447266	25292.500000
2357.536133	25493.832031
2356.624023	25577.191406
2355.711914	25506.994141
2354.800781	25713.666016
2353.887695	25440.667969
2352.975586	25471.912109
2352.063477	25568.894531
2351.150391	25693.236328
2350.237305	25560.097656
2349.324219	25301.044922
2348.411133	25447.267578
2347.498047	25240.330078
2346.584961	24978.726563
2345.670898	25187.861328
2344.756836	25344.941406
2343.843750	25058.833984
2342.929688	25467.492188
2342.014648	25438.498047
2341.100586	25666.507813
2340.185547	25607.417969
2339.271484	25272.312500
2338.356445	25308.951172
2337.441406	25320.986328
2336.526367	25122.681641
2335.610352	25172.978516
2334.695313	25256.025391
2333.779297	25317.201172
2332.863281	24927.947266
2331.947266	25163.830078
2331.031250	25104.919922
2330.115234	25136.064453
2329.198242	25453.621094
2328.282227	25334.685547
2327.365234	25234.880859
2326.448242	25315.052734
2325.531250	25245.267578
2324.614258	25276.349609
2323.696289	25231.119141
2322.779297	24959.765625
2321.861328	25015.394531
2320.943359	25125.476563
2320.025391	24927.802734
2319.107422	25114.093750
2318.188477	24949.154297
2317.270508	24991.125000
2316.351563	25106.554688
2315.432617	25289.962891
2314.513672	24779.619141
2313.594727	25077.253906
2312.674805	24961.435547
2311.755859	24875.564453
2310.835938	25056.130859
2309.916016	25163.250000
2308.996094	25031.187500
2308.076172	24907.320313
2307.156250	24726.447266
2306.235352	24795.517578
2305.315430	24937.886719
2304.394531	24830.410156
2303.473633	24904.853516
2302.551758	24756.703125
2301.630859	24776.857422
2300.709961	24634.205078
2299.788086	24526.867188
2298.866211	24617.570313
2297.944336	24561.796875
2297.022461	24592.808594
2296.100586	24607.541016
2295.177734	24928.556641
2294.255859	24750.812500
2293.333008	24475.583984
2292.410156	24823.544922
2291.487305	24602.570313
2290.563477	24695.818359
2289.640625	24661.771484
2288.716797	24614.199219
2287.793945	24544.988281
2286.870117	24502.863281
2285.946289	24476.988281
2285.021484	24618.853516
2284.097656	24557.800781
2283.172852	24237.140625
2282.249023	24251.884766
2281.324219	24126.041016
2280.399414	24346.226563
2279.473633	24352.832031
2278.548828	24540.476563
2277.623047	24341.720703
2276.698242	24496.886719
2275.772461	24395.431641
2274.846680	24204.900391
2273.919922	23930.744141
2272.994141	24358.498047
2272.067383	24141.083984
2271.141602	24323.101563
2270.214844	24148.931641
2269.288086	24214.892578
2268.361328	24100.132813
2267.433594	24093.273438
2266.506836	24199.648438
2265.579102	24246.681641
2264.651367	23875.957031
2263.723633	23904.167969
2262.795898	23794.964844
2261.867188	23917.457031
2260.939453	24266.138672
2260.010742	23761.085938
2259.082031	23966.980469
2258.153320	23774.408203
2257.224609	23759.533203
2256.295898	23830.771484
2255.366211	23665.224609
2254.437500	23846.742188
2253.507813	23756.554688
2252.578125	24024.042969
2251.648438	23791.357422
2250.717773	23943.156250
2249.788086	23820.757813
2248.857422	23768.269531
2247.926758	23933.423828
2246.996094	24009.871094
2246.065430	23635.078125
2245.134766	24057.958984
2244.203125	23608.109375
2243.272461	23663.082031
2242.340820	23766.345703
2241.409180	23730.033203
2240.477539	23532.750000
2239.544922	23807.666016
2238.613281	23736.494141
2237.680664	24019.320313
2236.748047	23666.613281
2235.816406	23582.097656
2234.882813	23666.464844
2233.950195	23665.048828
2233.017578	23749.369141
2232.083984	23528.273438
2231.150391	23350.105469
2230.216797	23573.687500
2229.283203	23502.669922
2228.349609	23546.787109
2227.415039	23623.007813
2226.481445	23485.115234
2225.546875	23427.537109
2224.612305	23538.511719
2223.677734	23625.375000
2222.742188	23420.718750
2221.807617	23496.875000
2220.872070	23417.953125
2219.937500	23392.515625
2219.001953	23353.724609
2218.066406	23330.976563
2217.129883	23057.121094
2216.194336	23517.875000
2215.257813	23545.847656
2214.321289	23464.337891
2213.384766	22945.044922
2212.448242	23418.841797
2211.511719	23494.843750
2210.575195	23117.226563
2209.637695	23262.613281
2208.700195	23487.966797
2207.762695	23339.890625
2206.825195	23282.517578
2205.887695	23294.478516
2204.949219	23437.039063
2204.011719	23387.673828
2203.073242	23474.212891
2202.134766	23494.121094
2201.196289	23234.345703
2200.257813	23677.720703
2199.318359	23260.904297
2198.379883	23235.574219
2197.440430	22981.343750
2196.500977	23075.826172
2195.561523	23178.257813
2194.621094	23214.144531
2193.681641	23029.246094
2192.741211	23307.150391
2191.801758	23010.623047
2190.861328	23134.240234
2189.920898	23039.855469
2188.979492	23089.011719
2188.039063	23220.519531
2187.097656	23171.328125
2186.156250	23318.710938
2185.214844	23094.240234
2184.273438	23068.992188
2183.332031	23033.132813
2182.390625	22976.048828
2181.448242	22913.675781
2180.505859	22994.611328
2179.563477	23083.474609
2178.621094	22925.623047
2177.678711	22810.257813
2176.735352	22915.015625
2175.792969	22948.154297
2174.849609	22790.431641
2173.906250	22812.978516
2172.962891	22716.277344
2172.019531	22540.130859
2171.075195	22824.939453
2170.130859	22932.208984
2169.187500	22750.816406
2168.243164	22704.507813
2167.298828	22938.794922
2166.353516	22614.582031
2165.409180	22981.103516
2164.463867	22728.425781
2163.518555	22949.316406
2162.573242	22821.031250
2161.627930	22544.710938
2160.682617	22567.232422
2159.736328	22653.185547
2158.791016	22480.107422
2157.844727	22412.785156
2156.898438	22398.324219
2155.952148	22840.841797
2155.004883	22564.849609
2154.058594	22619.021484
2153.111328	22554.369141
2152.164063	22584.765625
2151.216797	22538.613281
2150.269531	22410.677734
2149.322266	22478.015625
2148.374023	22653.480469
2147.426758	22530.861328
2146.478516	22516.398438
2145.530273	22269.931641
2144.582031	22268.697266
2143.632813	22465.125000
2142.684570	22205.619141
2141.735352	22618.025391
2140.786133	22253.216797
2139.836914	22099.226563
2138.887695	22332.375000
2137.938477	22231.078125
2136.988281	22290.388672
2136.039063	22297.039063
2135.088867	22111.595703
2134.138672	22236.666016
2133.187500	21930.292969
2132.237305	21971.189453
2131.286133	22051.513672
2130.335938	22163.357422
2129.384766	22256.763672
2128.433594	22489.427734
2127.482422	22356.755859
2126.530273	22174.210938
2125.579102	21989.103516
2124.626953	22161.244141
2123.674805	21999.832031
2122.722656	22077.392578
2121.770508	21986.925781
2120.817383	22156.318359
2119.865234	22023.882813
2118.912109	22048.910156
2117.958984	22123.767578
2117.005859	22001.894531
2116.052734	21982.330078
2115.098633	21871.009766
2114.145508	21623.417969
2113.191406	21719.246094
2112.237305	21775.734375
2111.283203	21703.824219
2110.329102	21765.533203
2109.374023	21607.218750
2108.418945	22009.339844
2107.464844	21623.257813
2106.509766	21643.050781
2105.554688	21592.169922
2104.598633	21454.953125
2103.643555	21796.570313
2102.687500	21764.000000
2101.731445	21420.205078
2100.775391	21675.353516
2099.819336	21580.070313
2098.863281	21573.697266
2097.906250	21517.666016
2096.950195	21631.507813
2095.993164	21395.210938
2095.036133	21488.134766
2094.079102	21531.400391
2093.121094	21726.107422
2092.164063	21539.562500
2091.206055	21679.378906
2090.248047	21552.933594
2089.290039	21272.570313
2088.332031	21300.169922
2087.374023	21369.498047
2086.415039	21324.042969
2085.456055	21362.046875
2084.498047	21491.291016
2083.538086	21508.398438
2082.579102	21423.851563
2081.620117	21618.160156
2080.660156	21387.720703
2079.700195	21397.015625
2078.741211	21375.052734
2077.780273	21121.337891
2076.820313	21255.642578
2075.860352	21134.794922
2074.899414	21216.996094
2073.938477	20963.482422
2072.977539	21183.576172
2072.016602	21166.875000
2071.055664	21079.955078
2070.094727	21084.078125
2069.132813	21231.195313
2068.170898	21089.718750
2067.208984	21070.443359
2066.247070	21152.519531
2065.285156	21172.210938
2064.322266	21046.425781
2063.360352	21016.779297
2062.397461	20833.933594
2061.434570	21040.599609
2060.471680	21182.294922
2059.507813	21098.138672
2058.544922	21034.771484
2057.581055	20903.968750
2056.617188	21053.367188
2055.653320	21047.097656
2054.689453	20916.359375
2053.724609	20775.292969
2052.760742	20885.724609
2051.795898	20939.095703
2050.831055	20798.097656
2049.866211	20602.740234
2048.901367	20609.503906
2047.935547	20704.322266
2046.970703	20871.615234
2046.004883	20842.078125
2045.039063	20628.757813
2044.073242	20674.330078
2043.107422	20673.304688
2042.140625	20739.548828
2041.174805	20772.140625
2040.208008	20659.882813
2039.241211	20723.507813
2038.274414	20634.564453
2037.306641	20786.060547
2036.339844	20645.445313
2035.372070	20365.337891
2034.404297	20441.871094
2033.436523	20567.457031
2032.468750	20419.228516
2031.500977	20413.076172
2030.532227	20406.925781
2029.564453	20547.916016
2028.595703	20464.314453
2027.626953	20409.126953
2026.657227	20431.357422
2025.688477	20239.474609
2024.718750	20204.986328
2023.750000	20206.609375
2022.780273	20058.693359
2021.810547	20204.697266
2020.839844	20345.494141
2019.870117	20292.974609
2018.899414	20261.083984
2017.928711	20244.660156
2016.958984	20390.498047
2015.987305	20325.128906
2015.016602	20355.042969
2014.045898	20171.289063
2013.074219	20283.578125
2012.102539	20205.402344
2011.130859	20106.671875
2010.159180	20090.291016
2009.187500	19976.183594
2008.214844	20060.117188
2007.242188	19912.626953
2006.269531	20186.765625
2005.296875	19977.621094
2004.324219	20064.062500
2003.351563	20081.103516
2002.377930	20003.093750
2001.404297	19804.398438
2000.430664	19770.115234
1999.457031	20059.341797
1998.483398	19822.232422
1997.509766	19598.041016
1996.535156	19661.326172
1995.560547	19686.105469
1994.585938	19990.478516
1993.611328	19833.093750
1992.636719	19621.912109
1991.661133	19754.359375
1990.685547	19973.912109
1989.710938	19591.099609
1988.735352	19595.353516
1987.758789	19704.650391
1986.783203	19734.498047
1985.806641	19636.279297
1984.831055	19668.687500
1983.854492	19580.751953
1982.877930	19771.865234
1981.901367	19497.109375
1980.923828	19703.521484
1979.946289	19426.314453
1978.969727	19532.904297
1977.992188	19473.212891
1977.014648	19377.744141
1976.036133	19412.697266
1975.058594	19212.464844
1974.080078	19600.128906
1973.101563	19420.375000
1972.123047	19353.097656
1971.144531	19620.472656
1970.166016	19445.916016
1969.186523	19373.560547
1968.208008	19566.750000
1967.228516	19461.212891
1966.249023	19080.078125
1965.268555	19181.351563
1964.289063	19300.449219
1963.308594	19345.529297
1962.329102	19232.468750
1961.348633	19093.947266
1960.367188	19200.224609
1959.386719	19207.052734
1958.406250	18946.273438
1957.424805	19386.328125
1956.443359	19370.187500
1955.461914	19229.236328
1954.480469	19208.033203
1953.499023	18952.572266
1952.516602	19242.027344
1951.534180	18887.375000
1950.552734	19186.916016
1949.569336	18982.527344
1948.586914	18948.664063
1947.604492	19097.958984
1946.621094	18949.642578
1945.637695	19175.166016
1944.655273	19192.136719
1943.670898	19000.667969
1942.687500	19187.939453
1941.704102	19118.503906
1940.719727	18889.037109
1939.735352	18809.515625
1938.750977	19027.162109
1937.766602	18856.232422
1936.782227	18718.365234
1935.796875	18935.910156
1934.811523	19001.107422
1933.826172	18853.134766
1932.840820	18783.861328
1931.855469	18745.048828
1930.870117	18706.250000
1929.883789	18730.855469
1928.897461	18823.902344
1927.911133	18736.947266
1926.924805	18791.943359
1925.938477	18649.277344
1924.951172	18547.195313
1923.964844	18936.546875
1922.977539	18771.136719
1921.990234	18519.691406
1921.002930	18835.423828
1920.014648	18958.671875
1919.027344	18783.248047
1918.039063	18605.353516
1917.050781	18728.574219
1916.062500	18598.810547
1915.074219	18567.720703
1914.084961	18604.912109
1913.096680	18631.978516
1912.107422	18575.621094
1911.118164	18658.277344
1910.128906	18483.175781
1909.138672	18517.820313
1908.149414	18610.544922
1907.159180	18544.136719
1906.168945	18495.423828
1905.178711	18441.679688
1904.188477	18130.496094
1903.198242	18404.906250
1902.207031	18272.984375
1901.215820	18433.748047
1900.224609	18317.000000
1899.233398	18288.556641
1898.242188	18328.203125
1897.250000	18473.714844
1896.258789	18299.066406
1895.266602	18187.482422
1894.274414	18141.445313
1893.282227	18385.134766
1892.289063	18462.498047
1891.296875	18303.111328
1890.303711	18320.031250
1889.310547	18180.865234
1888.317383	18127.324219
1887.324219	18242.408203
1886.330078	18138.552734
1885.336914	18326.546875
1884.342773	18034.070313
1883.348633	17937.847656
1882.354492	18022.689453
1881.359375	17984.320313
1880.365234	18021.367188
1879.370117	17917.671875
1878.375000	17959.740234
1877.379883	17780.728516
1876.384766	18058.902344
1875.389648	17857.333984
1874.393555	17776.353516
1873.397461	17838.488281
1872.401367	17724.910156
1871.405273	17829.691406
1870.409180	17701.099609
1869.412109	17690.453125
1868.416016	17770.103516
1867.418945	17621.525391
1866.421875	17861.621094
1865.423828	17655.421875
1864.426758	17697.423828
1863.428711	17626.642578
1862.431641	17573.425781
1861.433594	17455.095703
1860.435547	17474.558594
1859.436523	17526.568359
1858.438477	17636.144531
1857.439453	17417.751953
1856.440430	17554.837891
1855.441406	17321.521484
1854.442383	17350.992188
1853.443359	17385.453125
1852.443359	17529.949219
1851.443359	17331.808594
1850.444336	17383.753906
1849.443359	17318.193359
1848.443359	17235.160156
1847.443359	17489.501953
1846.442383	17244.068359
1845.441406	17231.033203
1844.440430	17225.494141
1843.439453	17279.888672
1842.438477	17236.890625
1841.436523	17168.947266
1840.434570	17053.607422
1839.432617	17360.017578
1838.430664	17299.570313
1837.428711	17017.136719
1836.426758	16889.431641
1835.423828	17016.115234
1834.420898	17067.960938
1833.417969	16995.150391
1832.415039	16957.257813
1831.412109	17001.607422
1830.408203	17083.312500
1829.404297	16861.091797
1828.400391	16892.980469
1827.396484	16653.443359
1826.392578	16921.869141
1825.388672	16978.619141
1824.383789	17296.666016
1823.378906	16741.208984
1822.374023	16723.324219
1821.369141	16755.193359
1820.364258	16926.320313
1819.358398	17107.332031
1818.352539	16947.685547
1817.346680	16974.517578
1816.340820	17043.589844
1815.334961	16831.855469
1814.329102	16692.242188
1813.322266	16900.421875
1812.315430	16798.095703
1811.308594	16911.828125
1810.301758	16707.750000
1809.294922	16637.777344
1808.287109	16776.292969
1807.279297	16527.681641
1806.271484	16552.048828
1805.263672	16526.798828
1804.255859	16402.357422
1803.247070	16498.636719
1802.239258	16562.654297
1801.230469	16745.621094
1800.221680	16598.923828
1799.212891	16474.578125
1798.203125	16771.417969
1797.194336	16684.238281
1796.184570	16552.511719
1795.174805	16559.486328
1794.165039	16687.761719
1793.155273	16402.644531
1792.144531	16565.544922
1791.134766	16723.439453
1790.124023	16480.521484
1789.113281	16376.196289
1788.102539	16333.730469
1787.090820	16439.628906
1786.080078	16409.525391
1785.068359	16465.939453
1784.056641	16329.581055
1783.044922	16596.001953
1782.032227	16412.730469
1781.020508	16261.632813
1780.007813	16374.816406
1778.995117	16394.138672
1777.982422	16297.429688
1776.969727	16447.566406
1775.957031	16197.884766
1774.943359	16409.666016
1773.929688	16169.946289
1772.916016	16347.126953
1771.902344	16275.185547
1770.888672	16203.268555
1769.874023	16131.375977
1768.860352	16241.890625
1767.845703	16231.620117
1766.831055	16201.642578
1765.816406	16107.628906
1764.800781	16237.770508
1763.786133	16153.631836
1762.770508	16318.185547
1761.754883	16000.212891
1760.739258	16098.283203
1759.722656	16206.161133
1758.707031	16107.337891
1757.690430	16119.241211
1756.673828	16086.871094
1755.657227	16160.247070
1754.640625	16105.752930
1753.623047	15736.642578
1752.606445	15950.125000
1751.588867	16092.272461
1750.571289	15988.690430
1749.552734	16084.108398
1748.535156	15811.106445
1747.517578	15943.352539
1746.499023	16090.282227
1745.480469	16053.063477
1744.461914	15804.799805
1743.442383	15674.402344
1742.423828	15843.351563
1741.404297	16017.146484
1740.384766	15690.584961
1739.365234	15685.348633
1738.345703	15844.367188
1737.326172	15736.158203
1736.305664	15914.715820
1735.285156	15710.970703
1734.264648	15615.089844
1733.244141	15849.907227
1732.223633	15763.830078
1731.202148	15606.775391
1730.180664	15719.064453
1729.160156	15726.064453
1728.137695	15392.900391
1727.116211	15625.056641
1726.094727	15646.745117
1725.072266	15641.521484
1724.049805	15807.480469
1723.027344	15496.599609
1722.004883	15430.288086
1720.982422	15647.521484
1719.958984	15605.642578
1718.935547	15290.129883
1717.912109	15521.927734
1716.888672	15428.800781
1715.865234	15543.275391
1714.840820	15442.851563
1713.817383	15271.669922
1712.792969	15364.143555
1711.768555	15515.149414
1710.743164	15390.401367
1709.718750	15182.757813
1708.693359	15297.128906
1707.668945	15284.656250
1706.643555	15267.311523
1705.617188	15062.272461
1704.591797	15354.498047
1703.565430	15422.435547
1702.540039	15215.040039
1701.513672	15112.461914
1700.487305	15180.404297
1699.459961	15063.257813
1698.433594	15269.957031
1697.406250	14977.573242
1696.378906	14967.608398
1695.351563	15037.946289
1694.324219	14918.492188
1693.296875	14918.271484
1692.268555	14854.817383
1691.240234	14852.174805
1690.211914	14961.366211
1689.183594	14771.539063
1688.155273	14722.735352
1687.125977	14882.916992
1686.096680	15021.175781
1685.067383	15142.381836
1684.038086	14928.401367
1683.008789	15064.148438
1681.978516	14726.445313
1680.949219	14738.387695
1679.918945	14869.240234
1678.888672	14805.933594
1677.858398	14842.114258
1676.827148	14815.215820
1675.795898	14703.449219
1674.765625	14715.378906
1673.734375	14809.729492
1672.702148	14838.601563
1671.670898	14770.528320
1670.639648	14816.357422
1669.607422	14566.621094
1668.575195	14760.216797
1667.542969	14924.682617
1666.509766	14682.322266
1665.477539	14471.518555
1664.444336	14391.489258
1663.411133	14655.118164
1662.377930	14618.634766
1661.344727	14456.372070
1660.311523	14652.125000
1659.277344	14630.167969
1658.243164	14562.281250
1657.208984	14610.451172
1656.174805	14687.605469
1655.140625	14750.233398
1654.105469	14827.333984
1653.070313	14549.310547
1652.035156	14667.476563
1651.000000	14510.317383
1649.964844	14553.602539
1648.928711	14541.352539
1647.893555	14275.691406
1646.857422	14538.581055
1645.821289	14581.829102
1644.784180	14615.411133
1643.748047	14593.511719
1642.710938	14489.632813
1641.673828	14462.940430
1640.636719	14510.980469
1639.599609	14493.932617
1638.562500	14276.892578
1637.524414	14363.485352
1636.486328	14616.250000
1635.448242	14476.368164
1634.410156	14656.785156
1633.372070	14625.280273
1632.333008	14471.028320
1631.293945	14509.358398
1630.254883	14427.366211
1629.215820	14542.672852
1628.176758	14499.186523
1627.136719	14773.160156
1626.097656	14948.452148
1625.057617	14609.221680
1624.017578	14952.731445
1622.977539	14880.370117
1621.936523	15098.764648
1620.895508	15276.242188
1619.855469	15453.655273
1618.814453	15671.829102
1617.772461	15949.949219
1616.731445	16619.265625
1615.689453	17393.949219
1614.648438	18038.769531
1613.606445	18575.390625
1612.563477	18804.763672
1611.521484	18669.490234
1610.479492	18289.667969
1609.436523	17842.847656
1608.393555	17031.816406
1607.350586	16666.867188
1606.306641	16479.375000
1605.263672	15779.230469
1604.219727	15872.228516
1603.175781	15493.375000
1602.131836	15344.536133
1601.087891	15303.487305
1600.043945	15085.316406
1598.999023	15211.858398
1597.954102	15292.890625
1596.909180	15271.016602
1595.864258	15294.599609
1594.818359	15251.208008
1593.773438	15346.519531
1592.727539	15616.320313
1591.681641	15766.507813
1590.635742	15945.320313
1589.588867	16296.108398
1588.542969	16799.669922
1587.496094	17615.955078
1586.449219	18260.001953
1585.402344	19421.957031
1584.355469	21027.539063
1583.307617	23417.833984
1582.259766	26601.966797
1581.212891	29333.998047
1580.164063	32761.650391
1579.116211	33273.375000
1578.068359	32692.693359
1577.019531	30002.082031
1575.970703	26695.001953
1574.921875	24166.117188
1573.873047	21750.140625
1572.823242	20266.636719
1571.774414	19090.964844
1570.724609	17937.150391
1569.674805	17386.230469
1568.625000	16687.888672
1567.574219	16230.225586
1566.524414	15836.988281
1565.473633	15462.928711
1564.422852	15174.653320
1563.372070	15117.224609
1562.320313	14712.573242
1561.269531	14800.299805
1560.217773	14616.958984
1559.166016	14348.106445
1558.114258	14122.130859
1557.062500	14390.492188
1556.009766	14352.277344
1554.957031	14211.933594
1553.904297	14152.388672
1552.851563	14178.347656
1551.798828	14166.310547
1550.746094	14018.977539
1549.692383	13836.097656
1548.638672	13760.060547
1547.584961	13871.470703
1546.531250	13812.056641
1545.476563	14032.507813
1544.422852	13977.828125
1543.368164	13958.727539
1542.313477	14240.659180
1541.257813	14088.804688
1540.203125	14301.897461
1539.147461	14450.950195
1538.092773	14562.050781
1537.037109	14609.170898
1535.980469	14916.724609
1534.924805	15134.209961
1533.868164	15479.427734
1532.812500	15869.483398
1531.755859	16500.734375
1530.698242	16696.486328
1529.641602	16783.369141
1528.584961	17449.585938
1527.527344	17777.462891
1526.469727	18280.152344
1525.412109	18352.503906
1524.353516	18732.027344
1523.295898	19052.347656
1522.237305	18989.875000
1521.178711	18684.156250
1520.120117	18463.556641
1519.061523	18028.191406
1518.001953	17559.931641
1516.943359	16768.505859
1515.883789	16293.561523
1514.824219	16012.245117
1513.763672	15447.968750
1512.704102	15001.815430
1511.643555	14782.187500
1510.583008	14317.452148
1509.522461	14013.167969
1508.461914	13888.102539
1507.400391	13859.689453
1506.339844	13685.221680
1505.278320	13689.830078
1504.216797	13468.354492
1503.155273	13600.147461
1502.092773	13411.724609
1501.031250	13312.811523
1499.968750	13016.253906
1498.906250	13216.265625
1497.843750	13145.668945
1496.780273	13195.051758
1495.717773	13098.615234
1494.654297	13213.822266
1493.590820	13242.007813
1492.527344	13166.766602
1491.462891	13361.795898
1490.399414	13378.190430
1489.334961	13476.796875
1488.270508	13674.011719
1487.206055	13751.394531
1486.140625	14246.663086
1485.076172	14711.237305
1484.010742	14800.125000
1482.945313	15086.091797
1481.879883	15233.532227
1480.814453	15071.283203
1479.748047	14730.849609
1478.681641	14545.298828
1477.615234	14357.470703
1476.548828	14176.741211
1475.482422	13916.393555
1474.415039	13759.239258
1473.348633	13555.285156
1472.281250	13616.089844
1471.213867	13515.279297
1470.145508	13379.381836
1469.078125	13320.788086
1468.009766	13515.006836
1466.941406	13496.192383
1465.873047	13542.900391
1464.804688	13676.148438
1463.735352	13636.262695
1462.666992	13797.507813
1461.597656	13897.902344
1460.528320	13694.356445
1459.458008	13811.092773
1458.388672	13684.751953
1457.318359	13556.119141
1456.248047	13525.646484
1455.177734	13537.224609
1454.107422	13350.305664
1453.037109	13158.785156
1451.965820	13359.503906
1450.894531	13298.749023
1449.823242	13065.335938
1448.751953	13083.980469
1447.679688	13097.952148
1446.608398	13121.247070
1445.536133	13146.865234
1444.463867	13368.312500
1443.390625	13354.249023
1442.318359	13433.412109
1441.245117	13326.134766
1440.171875	13598.641602
1439.098633	13430.809570
1438.025391	13481.953125
1436.952148	13393.370117
1435.877930	13232.648438
1434.803711	13458.371094
1433.729492	13372.165039
1432.655273	13630.355469
1431.581055	13532.516602
1430.505859	13692.893555
1429.430664	13741.585938
1428.355469	13857.689453
1427.280273	13618.071289
1426.205078	13520.319336
1425.128906	13687.522461
1424.052734	13273.805664
1422.976563	13162.229492
1421.900391	13236.500977
1420.823242	13222.501953
1419.747070	13366.387695
1418.669922	13261.836914
1417.592773	13022.709961
1416.515625	12939.142578
1415.437500	12755.840820
1414.360352	12816.169922
1413.282227	12635.275391
1412.204102	12609.806641
1411.125977	12542.615234
1410.046875	12540.351563
1408.968750	12447.702148
1407.889648	12556.678711
1406.810547	12561.362305
1405.731445	12637.849609
1404.651367	12679.569336
1403.572266	12776.846680
1402.492188	12593.963867
1401.412109	12850.930664
1400.332031	12996.720703
1399.250977	13184.106445
1398.170898	13241.873047
1397.089844	13445.335938
1396.008789	13664.913086
1394.927734	13856.665039
1393.845703	14062.216797
1392.764648	14297.741211
1391.682617	14817.418945
1390.600586	15022.683594
1389.518555	15953.231445
1388.435547	17010.472656
1387.353516	18148.152344
1386.270508	19578.638672
1385.187500	20733.908203
1384.104492	21551.796875
1383.020508	21651.742188
1381.937500	20934.923828
1380.853516	19706.273438
1379.769531	18487.291016
1378.685547	17762.208984
1377.600586	17279.458984
1376.516602	16983.593750
1375.431641	16922.908203
1374.346680	16866.849609
1373.261719	16990.509766
1372.175781	17256.931641
1371.090820	17502.531250
1370.004883	18098.027344
1368.918945	18534.460938
1367.833008	19371.234375
1366.746094	19897.029297
1365.660156	21082.986328
1364.573242	22300.718750
1363.486328	23718.115234
1362.399414	25337.365234
1361.311523	27351.492188
1360.224609	30192.458984
1359.136719	32864.613281
1358.048828	35820.750000
1356.959961	39646.585938
1355.872070	43737.503906
1354.783203	48720.363281
1353.695313	53758.824219
1352.606445	59835.496094
1351.516602	65806.671875
1350.427734	72087.804688
1349.337891	77990.343750
1348.248047	83227.710938
1347.158203	87525.007813
1346.068359	90520.390625
1344.978516	91579.398438
1343.887695	89634.765625
1342.796875	85701.242188
1341.706055	79188.648438
1340.615234	70865.976563
1339.523438	62296.601563
1338.432617	53753.238281
1337.340820	46312.203125
1336.249023	40053.039063
1335.156250	34927.027344
1334.064453	31370.718750
1332.971680	28504.513672
1331.878906	26218.210938
1330.786133	23971.623047
1329.693359	22485.191406
1328.600586	21013.015625
1327.506836	20046.656250
1326.413086	19028.070313
1325.319336	17886.435547
1324.225586	17225.082031
1323.130859	16527.416016
1322.036133	16037.869141
1320.941406	15400.047852
1319.846680	15093.557617
1318.751953	14629.648438
1317.657227	14533.408203
1316.561523	14104.000000
1315.465820	13775.146484
1314.370117	13729.301758
1313.273438	13505.557617
1312.177734	13509.949219
1311.081055	13409.452148
1309.984375	13347.747070
1308.887695	13192.611328
1307.791016	13383.922852
1306.693359	13319.975586
1305.595703	13269.718750
1304.498047	13034.990234
1303.400391	12820.841797
1302.302734	12650.029297
1301.204102	12527.083008
1300.105469	12310.865234
1299.007813	12126.583984
1297.908203	12092.530273
1296.809570	11928.826172
1295.709961	11835.686523
1294.611328	11719.840820
1293.511719	11501.728516
1292.411133	11642.845703
1291.311523	11502.096680
1290.210938	11556.814453
1289.110352	11579.706055
1288.009766	11502.644531
1286.909180	11371.105469
1285.808594	11423.535156
1284.707031	11455.512695
1283.605469	11607.778320
1282.503906	11689.635742
1281.402344	11621.711914
1280.299805	11826.039063
1279.198242	11894.203125
1278.095703	12252.612305
1276.993164	12189.166992
1275.890625	12064.538086
1274.787109	11788.097656
1273.683594	11559.345703
1272.580078	11280.831055
1271.476563	11156.455078
1270.373047	10946.060547
1269.269531	10805.938477
1268.165039	11050.752930
1267.060547	10955.935547
1265.956055	10858.887695
1264.850586	10904.431641
1263.746094	10486.168945
1262.640625	10561.168945
1261.535156	10633.879883
1260.429688	10462.358398
1259.324219	10526.016602
1258.217773	10501.498047
1257.111328	10298.455078
1256.004883	10411.816406
1254.898438	10245.006836
1253.791992	10369.629883
1252.684570	10336.125977
1251.577148	10289.087891
1250.469727	10158.540039
1249.362305	10384.652344
1248.254883	10287.984375
1247.146484	10369.590820
1246.038086	10225.587891
1244.929688	10235.002930
1243.821289	10341.378906
1242.711914	10247.058594
1241.603516	10200.108398
1240.494141	10250.087891
1239.384766	10248.220703
1238.274414	10023.314453
1237.165039	10129.609375
1236.054688	10116.503906
1234.944336	10015.585938
1233.833984	10065.541992
1232.723633	10079.463867
1231.612305	10277.919922
1230.500977	10123.042969
1229.389648	10199.936523
1228.278320	10342.029297
1227.166992	10369.379883
1226.054688	10635.052734
1224.943359	10390.329102
1223.831055	10725.576172
1222.717773	10788.789063
1221.605469	11166.530273
1220.492188	11393.625000
1219.379883	11479.140625
1218.266602	12182.153320
1217.152344	12743.463867
1216.039063	13160.907227
1214.924805	13843.027344
1213.810547	14495.728516
1212.696289	15287.287109
1211.582031	16170.525391
1210.467773	17262.009766
1209.352539	18184.923828
1208.237305	19410.154297
1207.122070	20466.828125
1206.006836	21818.933594
1204.890625	23394.609375
1203.774414	24275.236328
1202.658203	25827.490234
1201.541992	25404.003906
1200.425781	24450.027344
1199.308594	22330.083984
1198.191406	20045.287109
1197.074219	17989.576172
1195.957031	16176.252930
1194.839844	14638.738281
1193.721680	13728.021484
1192.603516	12763.968750
1191.485352	11941.119141
1190.367188	11670.699219
1189.249023	11154.534180
1188.129883	10949.155273
1187.010742	10915.878906
1185.891602	10840.172852
1184.772461	10974.423828
1183.652344	10753.596680
1182.533203	10604.288086
1181.413086	10633.600586
1180.292969	10493.294922
1179.171875	10640.872070
1178.051758	10676.852539
1176.930664	10630.292969
1175.809570	10748.772461
1174.688477	10762.416016
1173.566406	10990.058594
1172.445313	11088.346680
1171.323242	11389.383789
1170.201172	11703.677734
1169.079102	12193.835938
1167.956055	13015.665039
1166.833984	14189.024414
1165.710938	15163.806641
1164.587891	16013.578125
1163.464844	16580.392578
1162.340820	16479.455078
1161.216797	15441.935547
1160.092773	14402.571289
1158.968750	13323.556641
1157.844727	12638.498047
1156.719727	12062.623047
1155.595703	11662.551758
1154.470703	11933.761719
1153.345703	12380.401367
1152.219727	12835.762695
1151.094727	13972.830078
1149.968750	14565.414063
1148.842773	14711.507813
1147.716797	14016.217773
1146.589844	12908.363281
1145.462891	12311.294922
1144.336914	11434.895508
1143.209961	10876.025391
1142.082031	10388.329102
1140.955078	10104.813477
1139.827148	9748.241211
1138.699219	9770.838867
1137.571289	9602.833984
1136.443359	9512.443359
1135.314453	9397.716797
1134.185547	9181.141602
1133.056641	9245.897461
1131.927734	9253.061523
1130.798828	9012.279297
1129.668945	9041.615234
1128.539063	8909.394531
1127.409180	8932.100586
1126.279297	8857.462891
1125.149414	8997.391602
1124.018555	8966.996094
1122.887695	8839.330078
1121.756836	8895.183594
1120.625977	9127.827148
1119.494141	9093.008789
1118.362305	8952.155273
1117.231445	9063.168945
1116.098633	9160.890625
1114.966797	9243.119141
1113.833984	9316.486328
1112.702148	9310.364258
1111.569336	9343.966797
1110.435547	9271.646484
1109.302734	9153.024414
1108.168945	9122.671875
1107.036133	9090.125000
1105.901367	9205.316406
1104.767578	9100.018555
1103.633789	9133.614258
1102.499023	9096.680664
1101.364258	9092.808594
1100.229492	9106.560547
1099.094727	9307.514648
1097.958984	9528.211914
1096.823242	9506.649414
1095.687500	9896.723633
1094.551758	10051.166016
1093.416016	10366.182617
1092.279297	10575.481445
1091.142578	11187.232422
1090.005859	11554.646484
1088.869141	12042.859375
1087.731445	12689.176758
1086.594727	13031.933594
1085.457031	13541.580078
1084.319336	13930.194336
1083.180664	13951.800781
1082.042969	13608.799805
1080.904297	13116.596680
1079.765625	12255.716797
1078.626953	11698.086914
1077.487305	11072.623047
1076.348633	10493.470703
1075.208984	10162.448242
1074.069336	9783.289063
1072.929688	9695.958008
1071.789063	9314.830078
1070.648438	9212.270508
1069.508789	9212.769531
1068.367188	9162.862305
1067.226563	9213.766602
1066.085938	9006.142578
1064.944336	9313.326172
1063.802734	9418.920898
1062.661133	9673.365234
1061.518555	9945.228516
1060.376953	10501.526367
1059.234375	11230.497070
1058.091797	12221.750977
1056.948242	14179.524414
1055.805664	17354.802734
1054.662109	22538.507813
1053.518555	29591.792969
1052.375000	37685.164063
1051.231445	43019.625000
1050.086914	44383.960938
1048.942383	39423.062500
1047.797852	33485.417969
1046.653320	27646.048828
1045.508789	23374.398438
1044.363281	20630.306641
1043.217773	18341.224609
1042.072266	16764.412109
1040.926758	15212.180664
1039.780273	14003.014648
1038.634766	13217.424805
1037.488281	12275.114258
1036.341797	11808.453125
1035.194336	11056.397461
1034.047852	10422.310547
1032.900391	9934.456055
1031.752930	9634.146484
1030.605469	9368.800781
1029.457031	9059.994141
1028.308594	8949.451172
1027.161133	8734.449219
1026.011719	8687.130859
1024.863281	8600.656250
1023.714844	8407.594727
1022.565430	8319.026367
1021.416016	8136.962891
1020.266602	8070.223633
1019.116211	8060.039551
1017.966797	7997.686035
1016.816406	8098.365723
1015.666016	8040.373535
1014.514648	7941.121582
1013.364258	7939.658203
1012.212891	7962.085938
1011.061523	8088.735352
1009.910156	7978.690430
1008.758789	8011.950684
1007.606445	8060.390137
1006.454102	8037.205078
1005.301758	8168.061035
1004.149414	8164.386230
1002.997070	8319.025391
1001.843750	8612.375977
1000.690430	8669.320313
999.537109	8927.818359
998.383789	8941.341797
997.229492	8941.858398
996.076172	9096.180664
994.921875	8997.039063
993.766602	8819.975586
992.612305	8549.878906
991.457031	8353.481445
990.302734	8224.248047
989.146484	8092.897461
987.991211	7950.777832
986.835938	7791.406250
985.679688	7876.475098
984.523438	7669.604980
983.367188	7601.170898
982.210938	7794.301270
981.053711	7583.237305
979.896484	7488.928223
978.739258	7563.155762
977.582031	7492.642578
976.423828	7417.836914
975.266602	7394.875977
974.108398	7382.717285
972.950195	7359.770996
971.791016	7412.358887
970.632813	7236.232910
969.473633	7368.636230
968.314453	7261.596680
967.155273	7268.880371
965.995117	7192.081055
964.835938	7395.524902
963.675781	7368.297363
962.515625	7351.853027
961.354492	7313.871094
960.194336	7383.598145
959.033203	7455.453125
957.872070	7260.294922
956.710938	7345.061523
955.548828	7309.267090
954.387695	7303.611816
953.225586	7289.352539
952.063477	7277.249023
950.901367	7269.451660
949.738281	7212.198730
948.575195	7256.013672
947.412109	7164.391602
946.249023	7010.478027
945.085938	7133.808105
943.921875	7274.279297
942.757813	7221.382813
941.593750	7043.948730
940.429688	7141.414063
939.265625	7064.956543
938.100586	6992.819824
936.935547	7066.634766
935.770508	7005.251465
934.604492	7036.132324
933.439453	6938.315918
932.273438	7007.795898
931.107422	7004.354980
929.941406	6915.171875
928.774414	6961.041504
927.607422	6996.180176
926.440430	6896.335449
925.273438	6967.886230
924.106445	7088.666992
922.938477	6811.140137
921.771484	6861.257813
920.602539	6990.551758
919.434570	6984.977051
918.266602	7097.083008
917.097656	6913.935059
915.928711	6963.986328
914.759766	7035.402344
913.590820	6993.476563
912.420898	6889.574707
911.250977	6937.454590
910.081055	7017.368652
908.911133	6887.882324
907.740234	6954.958984
906.570313	6906.686035
905.399414	6913.946777
904.228516	6829.406250
903.056641	6986.090332
901.885742	6854.617188
900.713867	6910.955566
899.541992	6907.541016
898.370117	6914.791992
897.197266	6958.291992
896.024414	6916.492188
894.852539	6910.946289
893.678711	6935.240234
892.505859	6865.765137
891.332031	6877.274414
890.159180	6986.764648
888.985352	7011.025391
887.810547	6875.577637
886.636719	6955.201172
885.461914	7145.478516
884.287109	6982.414551
883.112305	7093.889160
881.937500	7109.591309
880.761719	7040.209473
879.585938	7085.687500
878.410156	7156.661621
877.234375	7212.729004
876.057617	7243.270996
874.881836	7437.424316
873.705078	7582.639648
872.528320	7625.839844
871.350586	7618.052734
870.173828	7684.586914
868.996094	7882.722656
867.818359	8059.558105
866.639648	8189.639160
865.461914	8491.539063
864.283203	8810.297852
863.104492	9493.755859
861.925781	10861.926758
860.747070	12727.846680
859.567383	15653.000000
858.387695	17292.673828
857.208008	16823.265625
856.028320	14226.884766
854.847656	11695.016602
853.666992	9748.624023
852.486328	8518.667969
851.305664	7960.287598
850.125000	7594.734863
848.943359	7349.947266
847.761719	7215.278320
846.580078	7222.398926
845.398438	7108.954102
844.215820	7092.829102
843.034180	7157.055176
841.851563	7162.065918
840.667969	6966.286621
839.485352	7089.667969
838.301758	6898.199707
837.118164	7006.760254
835.934570	6986.449219
834.750977	6966.145020
833.566406	6730.505859
832.381836	6817.907715
831.197266	6806.086914
830.012695	6825.920898
828.828125	6909.035645
827.642578	6871.893066
826.457031	6912.791016
825.271484	6934.697266
824.084961	6876.488770
822.899414	6917.362305
821.712891	6924.503906
820.526367	6923.214355
819.339844	6945.097168
818.152344	6941.697754
816.964844	7043.584961
815.777344	7023.325195
814.589844	7083.060059
813.402344	7323.761719
812.213867	7255.065430
811.025391	7495.645020
809.836914	7523.695801
808.648438	7564.353516
807.458984	7829.970703
806.269531	7759.140137
805.080078	8104.489258
803.890625	8399.275391
802.701172	8847.325195
801.510742	9490.564453
800.320313	10177.667969
799.129883	11452.466797
797.939453	13738.719727
796.748047	17963.636719
795.556641	25941.472656
794.365234	36736.402344
793.173828	47632.195313
791.981445	50280.824219
790.790039	43355.246094
789.597656	32649.800781
788.404297	23830.832031
787.211914	18343.468750
786.018555	14549.239258
784.825195	12241.876953
783.631836	10651.777344
782.438477	9634.028320
781.244141	8846.995117
780.050781	8261.237305
778.856445	7912.228027
777.661133	7720.307617
776.466797	7536.828125
775.271484	7276.012695
774.076172	7188.897949
772.880859	7147.823242
771.685547	7171.579102
770.489258	6888.029785
769.292969	6824.042480
768.096680	6910.534668
766.900391	6882.083496
765.703125	6784.709961
764.506836	6752.115723
763.309570	6759.207031
762.111328	6764.208008
760.914063	6679.451660
759.715820	6707.421387
758.517578	6681.129883
757.319336	6644.417480
756.121094	6616.061035
754.921875	6512.641602
753.722656	6567.719727
752.523438	6595.677246
751.324219	6671.560547
750.125000	6714.074219
748.924805	6671.150879
747.724609	6580.333496
746.524414	6627.004395
745.323242	6640.341797
744.123047	6514.187988
742.921875	6704.467285
741.720703	6578.347656
740.518555	6600.005859
739.317383	6713.189453
738.115234	6938.646484
736.913086	6922.792480
735.710938	7002.584961
734.507813	7094.819336
733.304688	7191.176270
732.101563	7376.850098
730.898438	7483.505371
729.695313	7419.789063
728.491211	7297.945313
727.287109	7342.261719
726.083008	6948.515625
724.878906	6897.399902
723.673828	6838.001953
722.468750	6732.978516
721.263672	6625.919434
720.058594	6662.013184
718.853516	6548.785645
717.647461	6431.454102
716.441406	6475.854492
715.235352	6516.093262
714.028320	6496.224121
712.822266	6495.007813
711.615234	6319.795410
710.408203	6353.818848
709.200195	6394.041016
707.993164	6305.894531
706.785156	6310.922852
705.577148	6349.060547
704.369141	6316.835449
703.160156	6528.725098
701.951172	6430.292969
700.742188	6476.649902
699.533203	6442.355957
698.324219	6441.148926
697.114258	6545.345703
695.904297	6562.715820
694.694336	6557.354004
693.484375	6566.453125
692.273438	6744.893555
691.062500	6549.538086
689.851563	6632.951172
688.640625	6586.299316
687.428711	6539.664551
686.217773	6618.905273
685.005859	6458.823730
683.792969	6558.673828
682.581055	6621.368652
681.368164	6539.720703
680.155273	6561.168457
678.942383	6368.271484
677.729492	6595.797363
676.515625	6666.665527
675.301758	6793.120605
674.087891	6913.349609
672.874023	7214.725098
671.659180	7616.859375
670.444336	8049.715332
669.229492	9095.644531
668.014648	10353.097656
666.799805	12317.709961
665.583984	13884.644531
664.368164	14180.201172
663.152344	13293.499023
661.935547	11747.306641
660.719727	10259.237305
659.502930	9104.596680
658.286133	8258.543945
657.068359	7712.688477
655.851563	7310.789551
654.633789	6972.690918
653.416016	6866.687500
652.198242	6553.427246
650.979492	6605.549805
649.760742	6444.279297
648.541992	6395.889160
647.323242	6294.193848
646.103516	6342.223145
644.884766	6285.678223
643.665039	6155.363770
642.445313	6275.118652
641.224609	6243.205078
640.004883	6137.553711
638.784180	6099.532715
637.563477	6110.672852
636.341797	6183.231934
635.121094	6159.551758
633.899414	6135.880371
632.677734	6147.004395
631.456055	6121.297852
630.233398	6007.644531
629.010742	6086.274414
627.788086	6107.621582
626.565430	6143.271484
625.342773	6009.257813
624.119141	6222.703613
622.895508	6105.070801
621.671875	6065.108887
620.447266	6078.264648
619.223633	6062.827148
617.999023	5912.645020
616.774414	6036.050293
615.548828	6083.895508
614.324219	5999.089844
613.098633	6051.003906
611.873047	6076.381836
610.647461	6081.355957
609.420898	5994.574219
608.194336	5911.902344
606.967773	6000.470215
605.741211	6074.739746
604.514648	6114.344727
603.287109	6029.673828
602.059570	5926.705078
600.832031	6017.221680
599.603516	5922.437012
598.375977	5968.138184
597.147461	6087.086914
595.918945	6114.426758
594.689453	5981.041016
593.460938	6077.545410
592.231445	6015.392090
591.001953	6156.583984
589.771484	6265.196777
588.541992	6239.626953
587.311523	6258.771484
586.081055	6312.447266
584.850586	6498.137695
583.619141	6476.603516
582.387695	6384.008301
581.156250	6506.644043
579.924805	6696.215820
578.693359	6824.833984
577.460938	6868.185547
576.228516	7098.153320
574.996094	7350.344727
573.762695	7730.195801
572.530273	8193.029297
571.296875	8511.764648
570.063477	9154.653320
568.829102	9635.192383
567.595703	10024.382813
566.361328	10484.319336
565.126953	10883.327148
563.891602	10901.521484
562.657227	10812.415039
561.421875	10593.801758
560.186523	10098.031250
558.951172	9695.517578
557.714844	9054.454102
556.479492	8769.593750
555.243164	8452.486328
554.005859	8408.434570
552.769531	8245.137695
551.532227	8098.070313
550.294922	8205.653320
549.057617	8095.011719
547.820313	8263.149414
546.582031	8433.242188
545.343750	8657.785156
544.105469	9152.748047
542.866211	9869.538086
541.627930	10598.163086
540.388672	11659.409180
539.149414	12928.020508
537.910156	13423.723633
536.669922	13582.500000
535.429688	12803.763672
534.189453	11690.725586
532.949219	10539.816406
531.708008	9429.639648
530.466797	8587.811523
529.225586	7953.754395
527.984375	7660.258789
526.743164	7292.379395
525.500977	6870.288574
524.258789	6852.888672
523.016602	6666.469238
521.773438	6401.657715
520.530273	6251.599609
519.287109	6171.985352
518.043945	6088.379395
516.800781	6145.526855
515.556641	6106.175293
514.312500	6050.762207
513.068359	6099.846680
511.824219	6014.323242
510.579102	5964.983398
509.333984	5971.886719
508.088867	5978.787109
506.843750	5881.306152
505.597656	6030.709961
504.351563	6031.574707
503.105469	5922.102051
501.859375	5808.658691
500.612305	5929.886719
499.365234	6014.978516
498.118164	5801.350586
496.871094	5948.565430
495.624023	5935.415527
494.375977	5942.305176
493.127930	6009.285156
491.879883	5926.035645
490.630859	6033.039063
489.381836	6133.996094
488.132813	6080.792969
486.883789	6023.607422
485.634766	6120.505859
484.384766	6287.383301
483.134766	6416.195801
481.884766	6582.953125
480.633789	6657.678711
479.383789	6756.363281
478.132813	6829.028809
476.880859	7105.479004
475.629883	7343.866699
474.377930	7416.378418
473.125977	7285.165527
471.874023	7283.783691
470.622070	7220.518066
469.369141	7003.592285
468.116211	6870.560059
466.863281	6813.393066
465.610352	6465.012695
464.356445	6439.854004
463.102539	6251.195801
461.848633	6120.424316
460.594727	6129.229492
459.339844	5974.615723
458.085938	5949.572266
456.831055	5970.356445
455.575195	5995.115723
454.320313	5952.159668
453.064453	5847.499023
451.808594	5928.003906
450.552734	5859.210938
449.295898	5798.403320
448.039063	5646.103027
446.782227	5750.452637
445.525391	5809.021973
444.267578	5652.829102
443.010742	5689.526855
441.752930	5612.917969
440.494141	5667.493652
439.236328	5716.087891
437.977539	5744.798828
436.718750	5668.236816
435.459961	5659.217285
434.201172	5646.229980
432.941406	5684.855957
431.681641	5719.497559
430.421875	5692.616699
429.161133	5725.259277
427.901367	5730.121582
426.640625	5729.032227
425.378906	5644.671387
424.118164	5756.588867
422.856445	5769.368164
421.594727	5738.548340
420.333008	5765.193359
419.071289	5869.079102
417.808594	5764.981445
416.545898	5613.402344
415.283203	5651.928223
414.020508	5650.853027
412.756836	5766.533691
411.493164	5805.007324
410.229492	5732.689453
408.965820	5737.532227
407.701172	5756.214844
406.436523	5766.981445
405.171875	5872.623047
403.907227	5784.549805
402.641602	5900.026855
401.375977	5879.148926
400.110352	6002.463867
398.844727	6080.312012
397.578125	6162.079102
396.311523	6427.397949
395.044922	6439.989746
393.778320	6616.357910
392.510742	6867.627930
391.243164	7033.983398
389.975586	7419.183105
388.708008	7642.551270
387.439453	7873.719238
386.171875	8124.508789
384.902344	8077.636719
383.633789	7843.606934
382.365234	7676.642578
381.095703	7338.393555
379.826172	7057.378418
378.555664	6827.657227
377.286133	6668.885742
376.015625	6647.934570
374.745117	6329.878418
373.474609	6133.913574
372.203125	6187.816895
370.931641	6096.177734
369.660156	6036.031738
368.388672	5979.839844
367.116211	6192.926270
365.844727	6091.530273
364.572266	5996.065918
363.298828	6246.348145
362.026367	6141.070801
360.752930	6198.804688
359.479492	6179.954102
358.206055	6172.887207
356.931641	6367.948242
355.657227	6439.327637
354.382813	6408.674805
353.108398	6603.578125
351.833984	6518.000000
350.558594	6563.808594
349.283203	6493.950684
348.006836	6375.125488
346.731445	6368.030273
345.455078	6419.708496
344.178711	6367.558105
342.902344	6233.180176
341.625000	6198.705566
340.348633	6025.259766
339.070313	6020.195313
337.792969	5983.823730
336.515625	5947.465820
335.237305	5834.835938
333.958984	5724.205078
332.680664	5648.810547
331.401367	5596.904297
330.122070	5527.426270
328.842773	5454.065918
327.563477	5466.700684
326.284180	5399.239746
325.003906	5335.710938
323.723633	5428.419434
322.442383	5333.671875
321.162109	5428.296387
319.880859	5339.438965
318.599609	5385.246582
317.318359	5427.134766
316.036133	5377.336914
314.753906	5298.306152
313.471680	5338.236816
312.189453	5364.506348
310.907227	5367.378418
309.624023	5290.357910
308.340820	5447.149414
307.057617	5303.916992
305.773438	5460.645508
304.489258	5362.247070
303.205078	5302.820313
301.920898	5270.664551
300.635742	5341.656250
299.351563	5336.743164
298.065430	5254.022949
296.780273	5280.245117
295.495117	5294.790527
294.208984	5311.273926
292.922852	5341.356934
291.635742	5342.277832
290.349609	5288.794434
289.062500	5270.298340
287.775391	5282.885254
286.488281	5322.652832
285.200195	5290.569824
283.912109	5268.204102
282.624023	5267.195313
281.335938	5240.961426
280.046875	5300.098145
278.757813	5353.392578
277.468750	5352.366699
276.179688	5295.113770
274.889648	5319.299805
273.600586	5436.507813
272.309570	5437.403809
271.019531	5446.048828
269.729492	5506.990234
268.438477	5540.794922
267.147461	5483.580566
265.855469	5608.364258
264.564453	5535.673828
263.272461	5664.269531
261.980469	5738.641113
260.687500	5747.212891
259.395508	5817.671387
258.102539	5890.036133
256.808594	5892.773438
255.515625	6007.620117
254.221680	6139.816406
252.928711	6156.028320
251.633789	6176.097656
250.339844	6389.306152
249.044922	6482.704590
247.750000	6556.759277
246.455078	6864.358398
245.160156	7019.370605
243.864258	7160.815430
242.568359	7362.012207
241.272461	7667.290527
239.975586	7957.023438
238.679688	8271.710938
237.382813	8655.676758
236.085938	9097.316406
234.788086	9515.661133
233.490234	9908.798828
232.192383	10305.637695
230.894531	10611.805664
229.596680	10948.664063
228.297852	10763.668945
226.999023	10819.346680
225.700195	10584.411133
224.400391	10355.337891
223.100586	9993.616211
221.800781	9847.446289
220.500977	9345.584961
219.201172	9053.478516
217.900391	8511.594727
216.599609	8287.023438
215.297852	8072.146484
213.997070	7801.639160
212.695313	7577.333496
211.393555	7568.195313
210.091797	7271.059570
208.789063	7217.831543
207.486328	7105.125977
206.183594	7005.895996
204.880859	6941.237305
203.577148	6713.559570
202.273438	6790.897949
200.969727	6864.371094
