3502.103516	28515.417969
3501.383789	28352.195313
3500.663086	28465.611328
3499.943359	28318.611328
3499.222656	28796.460938
3498.502930	28295.457031
3497.782227	28592.712891
3497.061523	28470.072266
3496.340820	28604.164063
3495.620117	28613.353516
3494.899414	28802.861328
3494.178711	28766.939453
3493.457031	28727.562500
3492.735352	28663.937500
3492.014648	28326.560547
3491.292969	28973.318359
3490.571289	28760.714844
3489.849609	28326.500000
3489.127930	28359.955078
3488.405273	28348.386719
3487.683594	28499.535156
3486.960938	28463.712891
3486.239258	28614.792969
3485.516602	28253.689453
3484.793945	28352.855469
3484.071289	28510.792969
3483.348633	28627.175781
3482.625000	28100.316406
3481.902344	28334.281250
3481.178711	28295.070313
3480.456055	28819.259766
3479.732422	28717.775391
3479.008789	28975.669922
3478.285156	28663.455078
3477.561523	28589.677734
3476.837891	28660.970703
3476.113281	28746.052734
3475.389648	28199.312500
3474.665039	28526.070313
3473.940430	28683.605469
3473.215820	28592.636719
3472.491211	28622.453125
3471.766602	28748.847656
3471.041992	28602.724609
3470.317383	28584.244141
3469.591797	29155.357422
3468.867188	28836.871094
3468.141602	28666.701172
3467.416016	29003.175781
3466.690430	28612.511719
3465.964844	28680.167969
3465.239258	28537.687500
3464.512695	28570.892578
3463.787109	28566.208984
3463.060547	28571.853516
3462.334961	28639.457031
3461.608398	28834.380859
3460.881836	28809.005859
3460.155273	28694.185547
3459.428711	28981.878906
3458.701172	28781.080078
3457.974609	28827.945313
3457.247070	28544.716797
3456.520508	28498.783203
3455.792969	28648.783203
3455.065430	28905.267578
3454.337891	28701.236328
3453.610352	28988.544922
3452.881836	28770.828125
3452.154297	28652.775391
3451.426758	28867.839844
3450.698242	29031.332031
3449.969727	28858.371094
3449.241211	28561.910156
3448.512695	28797.431641
3447.784180	28682.917969
3447.055664	29086.431641
3446.326172	28941.037109
3445.597656	28675.664063
3444.868164	28801.251953
3444.138672	28535.988281
3443.410156	28846.644531
3442.680664	28718.539063
3441.950195	28833.755859
3441.220703	29109.949219
3440.491211	28529.714844
3439.760742	28679.150391
3439.031250	28712.111328
3438.300781	28786.144531
3437.570313	28517.841797
3436.839844	28585.037109
3436.109375	28672.738281
3435.378906	29064.917969
3434.647461	28913.052734
3433.916992	28932.250000
3433.185547	28999.316406
3432.455078	28946.689453
3431.723633	28935.101563
3430.992188	28875.664063
3430.260742	29055.468750
3429.529297	28948.191406
3428.796875	28912.693359
3428.065430	28692.751953
3427.333008	28913.449219
3426.600586	29130.656250
3425.869141	29061.005859
3425.136719	29291.771484
3424.404297	28802.318359
3423.670898	28978.449219
3422.938477	28833.804688
3422.206055	28910.941406
3421.472656	29117.662109
3420.739258	28863.937500
3420.006836	29022.861328
3419.273438	28810.142578
3418.540039	28945.162109
3417.805664	29005.160156
3417.072266	29198.027344
3416.338867	28920.685547
3415.604492	28912.529297
3414.870117	29044.009766
3414.136719	29120.964844
3413.402344	29255.771484
3412.667969	28890.138672
3411.933594	28551.851563
3411.198242	29088.228516
3410.463867	28920.136719
3409.728516	29177.326172
3408.994141	28733.771484
3408.258789	28681.443359
3407.523438	28853.539063
3406.788086	29117.365234
3406.052734	29149.972656
3405.316406	28530.062500
3404.581055	28749.636719
3403.845703	28863.820313
3403.109375	28702.826172
3402.373047	29105.658203
3401.636719	29206.142578
3400.900391	28933.130859
3400.164063	28677.179688
3399.427734	28777.681641
3398.690430	28633.822266
3397.954102	28958.226563
3397.216797	29068.806641
3396.479492	28843.564453
3395.743164	28960.908203
3395.004883	28969.712891
3394.267578	29066.654297
3393.530273	29268.638672
3392.792969	29046.933594
3392.054688	28937.119141
3391.317383	29064.490234
3390.579102	29063.099609
3389.840820	28865.277344
3389.102539	28687.837891
3388.364258	28760.992188
3387.625000	29020.300781
3386.886719	29052.759766
3386.148438	28648.675781
3385.409180	28566.146484
3384.669922	28798.251953
3383.930664	28512.785156
3383.191406	28832.746094
3382.452148	28767.144531
3381.712891	28731.988281
3380.973633	29065.271484
3380.233398	29340.992188
3379.493164	29082.746094
3378.753906	28922.556641
3378.013672	29005.625000
3377.273438	28882.650391
3376.533203	29397.917969
3375.791992	29382.955078
3375.051758	29266.728516
3374.311523	29116.785156
3373.570313	28993.888672
3372.829102	28604.488281
3372.087891	29217.117188
3371.346680	28854.789063
3370.605469	28951.212891
3369.864258	28619.390625
3369.123047	28597.828125
3368.380859	28872.886719
3367.638672	29309.617188
3366.897461	29021.755859
3366.155273	29121.417969
3365.413086	28830.312500
3364.670898	29196.035156
3363.927734	28925.212891
3363.185547	29135.925781
3362.443359	29043.611328
3361.700195	28853.722656
3360.957031	28997.039063
3360.213867	29083.109375
3359.470703	29175.878906
3358.727539	29440.154297
3357.984375	29142.738281
3357.241211	29060.609375
3356.497070	28931.441406
3355.752930	28876.259766
3355.009766	29029.458984
3354.265625	29192.687500
3353.521484	29073.658203
3352.777344	29048.718750
3352.032227	28808.845703
3351.288086	28928.345703
3350.542969	29000.802734
3349.798828	29143.728516
3349.053711	28977.830078
3348.308594	29087.154297
3347.563477	29256.832031
3346.818359	29218.470703
3346.073242	28422.107422
3345.327148	28819.845703
3344.582031	28882.160156
3343.835938	28820.414063
3343.090820	28688.298828
3342.344727	29186.265625
3341.598633	28923.455078
3340.851563	28995.746094
3340.105469	29057.962891
3339.359375	29234.027344
3338.612305	29215.820313
3337.866211	29371.710938
3337.119141	28881.498047
3336.372070	29392.158203
3335.625000	28972.375000
3334.877930	29091.396484
3334.130859	29150.164063
3333.382813	29162.085938
3332.635742	28993.419922
3331.887695	29012.048828
3331.139648	29151.019531
3330.391602	28725.068359
3329.643555	28716.994141
3328.895508	28919.427734
3328.147461	28884.595703
3327.398438	29133.695313
3326.650391	28868.398438
3325.901367	29264.339844
3325.152344	28842.193359
3324.404297	28910.878906
3323.654297	28795.976563
3322.905273	28480.894531
3322.156250	29060.072266
3321.407227	28785.080078
3320.657227	28833.701172
3319.907227	28892.308594
3319.158203	28827.531250
3318.408203	28912.789063
3317.658203	29164.673828
3316.907227	29083.218750
3316.157227	29005.121094
3315.407227	28687.181641
3314.656250	28885.638672
3313.905273	28960.806641
3313.155273	28976.011719
3312.404297	29121.050781
3311.653320	28816.666016
3310.901367	29021.589844
3310.150391	28803.837891
3309.399414	29012.021484
3308.647461	29206.830078
3307.895508	29391.593750
3307.144531	29084.134766
3306.392578	28726.902344
3305.640625	29011.382813
3304.887695	29013.246094
3304.135742	28775.835938
3303.383789	28781.058594
3302.630859	29088.591797
3301.877930	28814.748047
3301.125000	29188.593750
3300.372070	28758.755859
3299.619141	28920.009766
3298.866211	28958.392578
3298.113281	28966.892578
3297.359375	28902.384766
3296.606445	28977.244141
3295.852539	29300.867188
3295.098633	28954.417969
3294.344727	29228.195313
3293.590820	29160.376953
3292.836914	28747.820313
3292.082031	28729.818359
3291.328125	28851.007813
3290.573242	28763.414063
3289.818359	29239.027344
3289.064453	29144.771484
3288.309570	28626.644531
3287.553711	28684.833984
3286.798828	28951.572266
3286.043945	28738.259766
3285.288086	28849.351563
3284.533203	28705.611328
3283.777344	28760.427734
3283.021484	29000.464844
3282.265625	29180.892578
3281.509766	29043.802734
3280.752930	28877.001953
3279.997070	28677.197266
3279.240234	28543.562500
3278.484375	28836.267578
3277.727539	28966.976563
3276.970703	29120.763672
3276.213867	29125.865234
3275.457031	29150.779297
3274.700195	28842.191406
3273.942383	29071.826172
3273.185547	28941.595703
3272.427734	29009.423828
3271.669922	29136.623047
3270.912109	28528.060547
3270.154297	28863.111328
3269.396484	29066.125000
3268.637695	29123.978516
3267.879883	29115.873047
3267.121094	28903.386719
3266.363281	28862.359375
3265.604492	29038.837891
3264.845703	28938.492188
3264.086914	29118.193359
3263.328125	28853.177734
3262.568359	29121.748047
3261.809570	29294.740234
3261.049805	29240.519531
3260.290039	29074.404297
3259.530273	28984.035156
3258.770508	28906.855469
3258.010742	28793.511719
3257.250977	28749.283203
3256.491211	29033.953125
3255.730469	29062.039063
3254.970703	28919.150391
3254.209961	28832.193359
3253.449219	28787.988281
3252.688477	28888.388672
3251.927734	28794.904297
3251.166016	28652.173828
3250.405273	29005.449219
3249.643555	28885.718750
3248.882813	28736.474609
3248.121094	29037.033203
3247.359375	29084.751953
3246.597656	28978.208984
3245.835938	28888.107422
3245.073242	29198.279297
3244.311523	29291.859375
3243.548828	29237.822266
3242.787109	29236.269531
3242.024414	28818.339844
3241.261719	28829.966797
3240.499023	29041.511719
3239.736328	28892.527344
3238.972656	28897.580078
3238.209961	29063.144531
3237.446289	28904.402344
3236.682617	28778.457031
3235.919922	28806.441406
3235.156250	29171.601563
3234.391602	29147.138672
3233.627930	29037.597656
3232.864258	28744.855469
3232.099609	29037.808594
3231.335938	29075.529297
3230.571289	29230.970703
3229.806641	28866.451172
3229.041992	29142.839844
3228.277344	29223.007813
3227.511719	29208.369141
3226.747070	29314.640625
3225.981445	29447.013672
3225.216797	29037.080078
3224.451172	28944.091797
3223.685547	28825.009766
3222.919922	29133.683594
3222.154297	29171.300781
3221.387695	29104.460938
3220.622070	29011.533203
3219.855469	28886.007813
3219.089844	29099.804688
3218.323242	28892.759766
3217.556641	29116.265625
3216.790039	29046.232422
3216.022461	29240.296875
3215.255859	28994.246094
3214.489258	28702.650391
3213.721680	29248.591797
3212.954102	29031.982422
3212.186523	28870.820313
3211.418945	28758.562500
3210.651367	29112.003906
3209.883789	29009.511719
3209.115234	28903.794922
3208.347656	28544.242188
3207.579102	28858.431641
3206.810547	28583.597656
3206.041992	28936.712891
3205.273438	28779.048828
3204.504883	28988.921875
3203.736328	29302.771484
3202.966797	29057.347656
3202.198242	28412.197266
3201.428711	28764.984375
3200.659180	28961.681641
3199.889648	28898.408203
3199.120117	28864.388672
3198.350586	28866.103516
3197.581055	28698.962891
3196.810547	28947.451172
3196.041016	29085.488281
3195.270508	29350.056641
3194.500000	28598.830078
3193.729492	28931.523438
3192.958984	29014.320313
3192.187500	29285.208984
3191.416992	29105.240234
3190.645508	29155.539063
3189.875000	29027.519531
3189.103516	28727.751953
3188.332031	29215.591797
3187.560547	28925.609375
3186.789063	28901.378906
3186.016602	28938.701172
3185.245117	28988.962891
3184.472656	28776.921875
3183.701172	28687.978516
3182.928711	28806.230469
3182.156250	28824.113281
3181.383789	29023.201172
3180.611328	29070.158203
3179.837891	28845.369141
3179.065430	28633.591797
3178.291992	28780.835938
3177.518555	28620.869141
3176.745117	28894.140625
3175.971680	28953.994141
3175.198242	28836.087891
3174.424805	28899.162109
3173.650391	28852.373047
3172.876953	29154.445313
3172.102539	29013.972656
3171.328125	28947.812500
3170.553711	29230.345703
3169.779297	29073.789063
3169.004883	29039.921875
3168.230469	28989.931641
3167.455078	28862.525391
3166.680664	29131.929688
3165.905273	29062.595703
3165.129883	28867.519531
3164.354492	28759.558594
3163.579102	29038.468750
3162.803711	28930.515625
3162.027344	28719.472656
3161.251953	28746.929688
3160.475586	28790.486328
3159.699219	28769.605469
3158.922852	28903.312500
3158.146484	29101.371094
3157.370117	28797.144531
3156.593750	28911.464844
3155.816406	29215.625000
3155.040039	28869.695313
3154.262695	29096.546875
3153.485352	29178.570313
3152.708008	28845.681641
3151.930664	28860.189453
3151.153320	29106.177734
3150.375000	28503.443359
3149.597656	28778.332031
3148.819336	28873.175781
3148.041992	28717.376953
3147.263672	28857.169922
3146.485352	28836.322266
3145.706055	28748.041016
3144.927734	29054.720703
3144.149414	28744.921875
3143.370117	28685.583984
3142.590820	28876.585938
3141.812500	28887.837891
3141.033203	28838.128906
3140.252930	28480.501953
3139.473633	28632.921875
3138.694336	28689.093750
3137.914063	28783.718750
3137.134766	28637.898438
3136.354492	29059.404297
3135.574219	28721.320313
3134.793945	29177.912109
3134.013672	28782.257813
3133.233398	28745.451172
3132.452148	28811.128906
3131.671875	29244.988281
3130.890625	28839.976563
3130.109375	28822.384766
3129.328125	29064.011719
3128.546875	28748.820313
3127.765625	28804.828125
3126.984375	28975.966797
3126.202148	28772.875000
3125.419922	29011.107422
3124.638672	28939.152344
3123.856445	28579.539063
3123.074219	28657.886719
3122.291992	28758.574219
3121.508789	28725.042969
3120.726563	28943.875000
3119.943359	28562.197266
3119.161133	28800.142578
3118.377930	28801.742188
3117.594727	28761.843750
3116.811523	28833.664063
3116.028320	28816.109375
3115.244141	28865.562500
3114.460938	28717.210938
3113.676758	28795.369141
3112.892578	29032.949219
3112.108398	28884.642578
3111.324219	29039.240234
3110.540039	28581.798828
3109.755859	28675.841797
3108.971680	28655.144531
3108.186523	28809.673828
3107.401367	28839.925781
3106.617188	28596.271484
3105.832031	28785.757813
3105.046875	28624.970703
3104.260742	28862.136719
3103.475586	28755.492188
3102.689453	28706.162109
3101.904297	29175.451172
3101.118164	28833.404297
3100.332031	28637.777344
3099.545898	28620.294922
3098.759766	28946.205078
3097.973633	29001.792969
3097.186523	28733.158203
3096.400391	28753.804688
3095.613281	28876.119141
3094.826172	28699.765625
3094.039063	28694.994141
3093.251953	28572.716797
3092.464844	28806.109375
3091.677734	28998.154297
3090.889648	28679.082031
3090.101563	28963.119141
3089.314453	29205.806641
3088.526367	29115.289063
3087.738281	28837.644531
3086.950195	28801.130859
3086.161133	28406.298828
3085.373047	28759.843750
3084.583984	28872.347656
3083.795898	28534.750000
3083.006836	28675.773438
3082.217773	29057.550781
3081.428711	28897.488281
3080.638672	28683.634766
3079.849609	29068.382813
3079.060547	28826.072266
3078.270508	29014.386719
3077.480469	28965.244141
3076.690430	29308.544922
3075.900391	29291.009766
3075.110352	28928.640625
3074.320313	29028.208984
3073.529297	29216.296875
3072.739258	29028.033203
3071.948242	28820.859375
3071.157227	28825.544922
3070.366211	28817.585938
3069.575195	28872.828125
3068.784180	28880.660156
3067.992188	28758.970703
3067.201172	29025.806641
3066.409180	29418.867188
3065.617188	29117.177734
3064.825195	28903.978516
3064.033203	28902.322266
3063.241211	29055.298828
3062.449219	29056.769531
3061.656250	29231.750000
3060.864258	28936.695313
3060.071289	28625.968750
3059.278320	28886.066406
3058.485352	28688.945313
3057.692383	28841.773438
3056.898438	28836.968750
3056.105469	28832.166016
3055.311523	28925.029297
3054.518555	28693.410156
3053.724609	29183.099609
3052.930664	29102.662109
3052.136719	28801.861328
3051.342773	29030.007813
3050.547852	29022.023438
3049.753906	29105.300781
3048.958984	29068.988281
3048.164063	28799.896484
3047.369141	28647.269531
3046.574219	29142.511719
3045.779297	29112.501953
3044.984375	29069.925781
3044.188477	29099.656250
3043.393555	29324.220703
3042.597656	28913.998047
3041.801758	29235.906250
3041.005859	29312.703125
3040.209961	29125.664063
3039.414063	29271.531250
3038.617188	29395.371094
3037.821289	29073.433594
3037.024414	29197.263672
3036.227539	28979.015625
3035.430664	29105.957031
3034.633789	29220.306641
3033.836914	28945.705078
3033.040039	29282.687500
3032.242188	29337.376953
3031.445313	29413.990234
3030.647461	29481.173828
3029.849609	29717.558594
3029.051758	29524.607422
3028.253906	29616.798828
3027.455078	29499.099609
3026.657227	29838.666016
3025.858398	29633.294922
3025.060547	29750.447266
3024.261719	29667.232422
3023.462891	29812.503906
3022.664063	29744.949219
3021.864258	29730.601563
3021.065430	29903.939453
3020.265625	30230.466797
3019.466797	29884.582031
3018.666992	30236.013672
3017.867188	30305.992188
3017.067383	30235.300781
3016.267578	30374.001953
3015.466797	30643.878906
3014.666992	30744.976563
3013.866211	30689.873047
3013.065430	30809.664063
3012.264648	30948.146484
3011.463867	31301.986328
3010.663086	30875.392578
3009.862305	31488.144531
3009.060547	31486.009766
3008.259766	31340.367188
3007.458008	31098.080078
3006.656250	31242.583984
3005.854492	31203.070313
3005.052734	31518.974609
3004.250977	30874.710938
3003.448242	30738.660156
3002.646484	31129.265625
3001.843750	30828.093750
3001.041016	31065.917969
3000.238281	30895.662109
2999.435547	30678.753906
2998.632813	30231.523438
2997.830078	30347.878906
2997.026367	30507.767578
2996.222656	30580.470703
2995.419922	29943.757813
2994.616211	30299.613281
2993.812500	30384.753906
2993.007813	30249.066406
2992.204102	30017.037109
2991.400391	30242.070313
2990.595703	30056.742188
2989.791016	29638.392578
2988.986328	29941.054688
2988.181641	29684.412109
2987.376953	30058.406250
2986.572266	30075.123047
2985.766602	30365.085938
2984.961914	30049.550781
2984.156250	30274.234375
2983.350586	29933.988281
2982.544922	30319.972656
2981.739258	30082.214844
2980.933594	29860.046875
2980.126953	29898.478516
2979.321289	30147.761719
2978.514648	30499.277344
2977.708008	30360.882813
2976.901367	30138.847656
2976.094727	30102.822266
2975.288086	30584.238281
2974.481445	30780.488281
2973.673828	30583.306641
2972.867188	30900.265625
2972.059570	30969.410156
2971.251953	30704.185547
2970.444336	30822.865234
2969.636719	30848.658203
2968.828125	30725.919922
2968.020508	30983.750000
2967.211914	30994.035156
2966.403320	30732.158203
2965.594727	30835.246094
2964.786133	30554.931641
2963.977539	30926.941406
2963.168945	31107.207031
2962.360352	30913.507813
2961.550781	30957.771484
2960.741211	30705.466797
2959.931641	30586.054688
2959.122070	30534.617188
2958.312500	30541.859375
2957.502930	30740.494141
2956.693359	30710.660156
2955.882813	30585.169922
2955.072266	30573.880859
2954.261719	30716.843750
2953.451172	30770.308594
2952.640625	30755.910156
2951.830078	30914.183594
2951.019531	31038.492188
2950.208008	31113.439453
2949.396484	31117.478516
2948.585938	31429.650391
2947.774414	31473.683594
2946.962891	31764.125000
2946.150391	32005.193359
2945.338867	32095.292969
2944.527344	32280.804688
2943.714844	32457.017578
2942.902344	33162.542969
2942.089844	33347.777344
2941.277344	33526.796875
2940.464844	34373.289063
2939.652344	34994.968750
2938.838867	35321.226563
2938.026367	36176.214844
2937.212891	36984.800781
2936.399414	38035.929688
2935.585938	38886.957031
2934.772461	40235.453125
2933.958008	41328.515625
2933.144531	43044.734375
2932.330078	44935.429688
2931.516602	46585.984375
2930.702148	48331.160156
2929.887695	50137.136719
2929.073242	52602.339844
2928.257813	54793.617188
2927.443359	56444.203125
2926.627930	58266.011719
2925.813477	59946.125000
2924.998047	60613.761719
2924.182617	61526.441406
2923.367188	60829.488281
2922.550781	60077.601563
2921.735352	58958.238281
2920.918945	57698.308594
2920.103516	56558.273438
2919.287109	54628.410156
2918.470703	52481.769531
2917.654297	50874.718750
2916.836914	48836.566406
2916.020508	47374.519531
2915.204102	45655.898438
2914.386719	44262.187500
2913.569336	42569.132813
2912.751953	41106.050781
2911.934570	40031.847656
2911.117188	39486.984375
2910.298828	38202.468750
2909.481445	37120.117188
2908.663086	36206.218750
2907.844727	35793.750000
2907.026367	35170.613281
2906.208008	35039.476563
2905.389648	33842.503906
2904.571289	33329.933594
2903.751953	33556.378906
2902.933594	32863.925781
2902.114258	32571.521484
2901.294922	32132.740234
2900.475586	31797.839844
2899.656250	31328.828125
2898.835938	31219.875000
2898.016602	31242.083984
2897.196289	30755.103516
2896.376953	30652.394531
2895.556641	30287.593750
2894.736328	30355.652344
2893.915039	30451.109375
2893.094727	29748.369141
2892.274414	29974.867188
2891.453125	29552.619141
2890.631836	29608.558594
2889.810547	29634.035156
2888.989258	29537.746094
2888.167969	29864.517578
2887.346680	29330.048828
2886.524414	28966.130859
2885.703125	29368.876953
2884.880859	28907.750000
2884.058594	28842.082031
2883.236328	28876.765625
2882.414063	28847.601563
2881.591797	28879.230469
2880.768555	28995.933594
2879.946289	28857.384766
2879.123047	28803.935547
2878.299805	28595.605469
2877.476563	28514.886719
2876.653320	28485.810547
2875.830078	28277.636719
2875.005859	28458.035156
2874.182617	28432.015625
2873.358398	28266.429688
2872.534180	28246.515625
2871.709961	28159.876953
2870.885742	28079.332031
2870.060547	28132.228516
2869.236328	28282.117188
2868.411133	28050.033203
2867.586914	28133.210938
2866.761719	28134.544922
2865.936523	27981.369141
2865.111328	27867.623047
2864.286133	27732.712891
2863.459961	27612.988281
2862.634766	27865.693359
2861.808594	27942.742188
2860.982422	27971.339844
2860.156250	27918.224609
2859.330078	27865.125000
2858.503906	27981.445313
2857.676758	27922.302734
2856.850586	28077.882813
2856.023438	28109.447266
2855.196289	27642.207031
2854.369141	27942.832031
2853.541992	28037.861328
2852.714844	28314.146484
2851.886719	28387.931641
2851.059570	28156.626953
2850.231445	28079.416016
2849.403320	27881.453125
2848.575195	28160.544922
2847.747070	28004.890625
2846.918945	28108.828125
2846.089844	28176.521484
2845.261719	28413.136719
2844.432617	27889.541016
2843.603516	27911.994141
2842.774414	27439.917969
2841.945313	27570.974609
2841.116211	27912.990234
2840.286133	28031.863281
2839.457031	27761.976563
2838.626953	27350.574219
2837.796875	27300.789063
2836.966797	27497.990234
2836.136719	27454.218750
2835.306641	27356.265625
2834.476563	26876.037109
2833.645508	27006.957031
2832.814453	27137.832031
2831.984375	26994.863281
2831.153320	26776.734375
2830.321289	26579.732422
2829.490234	26533.158203
2828.659180	26164.876953
2827.827148	26572.332031
2826.995117	26396.533203
2826.164063	26325.976563
2825.332031	26525.869141
2824.500000	26263.041016
2823.666992	26396.792969
2822.834961	26248.197266
2822.001953	26057.611328
2821.169922	26050.222656
2820.336914	25886.748047
2819.503906	25951.419922
2818.670898	26118.091797
2817.836914	25684.667969
2817.003906	25731.339844
2816.169922	25658.027344
2815.336914	25863.615234
2814.502930	25958.201172
2813.668945	25791.957031
2812.834961	25652.742188
2812.000000	25828.222656
2811.166016	25760.955078
2810.331055	25570.886719
2809.497070	25665.421875
2808.662109	25367.625000
2807.827148	25174.720703
2806.992188	25580.609375
2806.156250	25782.828125
2805.321289	25569.001953
2804.485352	25705.326172
2803.650391	25665.097656
2802.814453	25651.800781
2801.978516	25533.835938
2801.142578	25296.306641
2800.305664	25531.214844
2799.469727	25697.292969
2798.632813	25286.513672
2797.795898	25249.384766
2796.959961	25388.535156
2796.123047	25040.742188
2795.285156	25385.955078
2794.448242	25250.289063
2793.611328	25664.015625
2792.773438	25376.109375
2791.935547	25321.093750
2791.097656	25361.587891
2790.259766	25327.478516
2789.421875	25347.074219
2788.583984	25041.564453
2787.745117	25094.001953
2786.907227	24898.953125
2786.068359	24844.078125
2785.229492	25197.556641
2784.390625	24975.765625
2783.551758	25054.982422
2782.712891	25160.982422
2781.873047	25001.857422
2781.033203	25057.203125
2780.194336	24924.943359
2779.354492	25126.156250
2778.514648	25115.966797
2777.673828	25269.460938
2776.833984	24964.671875
2775.994141	24859.310547
2775.153320	25027.640625
2774.312500	24839.031250
2773.471680	25221.398438
2772.630859	24970.384766
2771.790039	24811.601563
2770.949219	25063.009766
2770.107422	24904.263672
2769.265625	24742.599609
2768.424805	24848.333984
2767.583008	24885.722656
2766.741211	24952.792969
2765.898438	24871.388672
2765.056641	25057.175781
2764.213867	24860.027344
2763.372070	24757.906250
2762.529297	24623.179688
2761.686523	24731.751953
2760.843750	24804.693359
2760.000977	25102.990234
2759.157227	24496.857422
2758.314453	24629.089844
2757.470703	24713.853516
2756.626953	24819.332031
2755.783203	24649.214844
2754.939453	24719.115234
2754.095703	24960.789063
2753.250977	24716.693359
2752.407227	24493.406250
2751.562500	24518.876953
2750.717773	24585.777344
2749.873047	24726.642578
2749.028320	24752.056641
2748.183594	24312.978516
2747.337891	24717.076172
2746.493164	24523.623047
2745.647461	24705.773438
2744.801758	24512.384766
2743.956055	24354.531250
2743.110352	24335.640625
2742.263672	24757.052734
2741.417969	24676.052734
2740.571289	24509.414063
2739.725586	24915.812500
2738.878906	24890.933594
2738.032227	24588.523438
2737.184570	24395.441406
2736.337891	24450.349609
2735.491211	24416.708984
2734.643555	24722.388672
2733.795898	24659.210938
2732.948242	24531.164063
2732.100586	24468.039063
2731.252930	24437.367188
2730.404297	24492.197266
2729.556641	24561.746094
2728.708008	24404.349609
2727.859375	24135.039063
2727.010742	24387.263672
2726.162109	24468.562500
2725.313477	24243.548828
2724.464844	24554.515625
2723.615234	24441.435547
2722.765625	24525.611328
2721.916992	24389.027344
2721.067383	24452.582031
2720.216797	24751.480469
2719.367188	24585.509766
2718.517578	24219.603516
2717.666992	24483.097656
2716.816406	24393.697266
2715.966797	24492.457031
2715.116211	24411.898438
2714.264648	24416.585938
2713.414063	24568.173828
2712.563477	24334.888672
2711.711914	24113.427734
2710.860352	24038.871094
2710.008789	24357.775391
2709.157227	24459.335938
2708.305664	24505.095703
2707.454102	24380.630859
2706.601563	24276.748047
2705.750000	24228.636719
2704.897461	24327.195313
2704.044922	24460.912109
2703.192383	24474.367188
2702.338867	24520.062500
2701.486328	24577.466797
2700.633789	24605.544922
2699.780273	24369.900391
2698.926758	24307.183594
2698.073242	24575.480469
2697.219727	24565.462891
2696.366211	24356.335938
2695.511719	24387.343750
2694.658203	24365.652344
2693.803711	24165.443359
2692.949219	24202.318359
2692.094727	24294.767578
2691.240234	24205.824219
2690.385742	24485.419922
2689.530273	24007.556641
2688.675781	24073.660156
2687.820313	24014.044922
2686.964844	24080.123047
2686.109375	23815.968750
2685.253906	23873.291016
2684.397461	23667.685547
2683.541992	23803.871094
2682.685547	23925.410156
2681.829102	23865.882813
2680.972656	23928.982422
2680.116211	23735.210938
2679.259766	23672.826172
2678.403320	23858.468750
2677.545898	23912.773438
2676.688477	23783.300781
2675.832031	23429.318359
2674.974609	23673.191406
2674.117188	23605.042969
2673.258789	23501.941406
2672.401367	23311.443359
2671.542969	23508.546875
2670.685547	23376.376953
2669.827148	23579.224609
2668.968750	23435.437500
2668.109375	23690.619141
2667.250977	23616.732422
2666.392578	22981.076172
2665.533203	23119.789063
2664.673828	23398.125000
2663.814453	23269.056641
2662.955078	23372.740234
2662.095703	23304.792969
2661.236328	23143.816406
2660.375977	23081.746094
2659.516602	23295.849609
2658.656250	23105.890625
2657.795898	22927.617188
2656.935547	23173.595703
2656.074219	23047.660156
2655.213867	23037.941406
2654.352539	23077.593750
2653.492188	23178.205078
2652.630859	23145.244141
2651.769531	22926.537109
2650.908203	22986.490234
2650.045898	22944.873047
2649.184570	23091.832031
2648.322266	23006.701172
2647.460938	22982.498047
2646.598633	22871.316406
2645.736328	22913.822266
2644.873047	22869.355469
2644.010742	22926.332031
2643.147461	23116.578125
2642.285156	23135.832031
2641.421875	22934.939453
2640.558594	23064.267578
2639.695313	22860.558594
2638.832031	23024.593750
2637.967773	22713.859375
2637.104492	22689.746094
2636.240234	22601.980469
2635.375977	22959.783203
2634.511719	22776.542969
2633.647461	22746.648438
2632.783203	22841.101563
2631.917969	22808.312500
2631.053711	22729.283203
2630.188477	22670.511719
2629.323242	22750.462891
2628.458008	22671.480469
2627.592773	22427.869141
2626.726563	22548.253906
2625.861328	22483.783203
2624.995117	22497.289063
2624.128906	22715.746094
2623.262695	22610.871094
2622.396484	22728.232422
2621.530273	22692.632813
2620.664063	22792.630859
2619.796875	22843.560547
2618.929688	22539.765625
2618.062500	22345.638672
2617.195313	22578.234375
2616.328125	22649.337891
2615.460938	22308.314453
2614.592773	22422.660156
2613.725586	22375.636719
2612.857422	22472.648438
2611.989258	22105.964844
2611.121094	22364.232422
2610.252930	22553.318359
2609.383789	22658.865234
2608.515625	22617.601563
2607.646484	22518.802734
2606.777344	22336.605469
2605.908203	22260.896484
2605.039063	22173.708984
2604.169922	22351.095703
2603.300781	22436.419922
2602.430664	22234.265625
2601.560547	22331.076172
2600.690430	22557.162109
2599.820313	22217.181641
2598.950195	22290.962891
2598.080078	22252.707031
2597.208984	22205.849609
2596.338867	22273.851563
2595.467773	22284.416016
2594.596680	22171.562500
2593.725586	22308.404297
2592.853516	22258.703125
2591.982422	22366.794922
2591.110352	22202.373047
2590.239258	22204.332031
2589.367188	22171.882813
2588.495117	22199.644531
2587.623047	22089.820313
2586.750000	21891.193359
2585.877930	21884.603516
2585.004883	22187.406250
2584.132813	21928.712891
2583.259766	22136.900391
2582.386719	22090.185547
2581.512695	22266.781250
2580.639648	22142.775391
2579.765625	21947.265625
2578.892578	22203.912109
2578.018555	22131.472656
2577.144531	21998.990234
2576.270508	21877.990234
2575.395508	21874.265625
2574.521484	21930.580078
2573.646484	21946.855469
2572.772461	21691.621094
2571.897461	21930.810547
2571.022461	22067.068359
2570.146484	21874.783203
2569.271484	21808.228516
2568.396484	21875.902344
2567.520508	21695.166016
2566.644531	21677.199219
2565.768555	21579.326172
2564.892578	21726.888672
2564.016602	21700.363281
2563.139648	21459.904297
2562.263672	21673.007813
2561.386719	21540.994141
2560.509766	21617.156250
2559.632813	21684.740234
2558.755859	21569.890625
2557.877930	21466.476563
2557.000977	21682.207031
2556.123047	21553.169922
2555.245117	21315.945313
2554.367188	21497.414063
2553.489258	21730.072266
2552.611328	21296.509766
2551.733398	21418.117188
2550.854492	21562.447266
2549.975586	21413.662109
2549.096680	21239.324219
2548.217773	21394.986328
2547.338867	21533.533203
2546.459961	21475.837891
2545.580078	21523.349609
2544.701172	21184.279297
2543.821289	21501.802734
2542.941406	21256.617188
2542.061523	21369.470703
2541.181641	21303.337891
2540.300781	21171.906250
2539.420898	21151.259766
2538.540039	21292.441406
2537.659180	21325.712891
2536.778320	21435.595703
2535.897461	21389.376953
2535.015625	21450.982422
2534.134766	21305.496094
2533.252930	21449.337891
2532.371094	21241.515625
2531.489258	21331.451172
2530.607422	21316.474609
2529.725586	21264.658203
2528.843750	21068.339844
2527.960938	20988.250000
2527.078125	21001.666016
2526.195313	21462.566406
2525.312500	21096.441406
2524.429688	21268.380859
2523.546875	21103.396484
2522.663086	21094.134766
2521.780273	21350.876953
2520.896484	21259.525391
2520.012695	21190.833984
2519.128906	21127.822266
2518.245117	20963.027344
2517.360352	20860.490234
2516.476563	20873.890625
2515.591797	21020.126953
2514.707031	21214.355469
2513.822266	20979.046875
2512.937500	20800.316406
2512.051758	20940.814453
2511.166992	21030.431641
2510.281250	20834.839844
2509.395508	20842.574219
2508.509766	20980.144531
2507.624023	20663.310547
2506.738281	20848.828125
2505.851563	21042.746094
2504.965820	20810.681641
2504.079102	20886.091797
2503.192383	20837.408203
2502.305664	20771.828125
2501.418945	21064.244141
2500.532227	20840.824219
2499.644531	20631.568359
2498.756836	20802.712891
2497.870117	20776.625000
2496.982422	20702.667969
2496.093750	20975.082031
2495.206055	20850.437500
2494.318359	20731.464844
2493.429688	20494.330078
2492.541016	20440.175781
2491.652344	20619.556641
2490.763672	20787.621094
2489.875000	20992.189453
2488.986328	20474.009766
2488.096680	20568.914063
2487.207031	20596.318359
2486.318359	20885.093750
2485.427734	20580.847656
2484.538086	20706.570313
2483.648438	20711.457031
2482.758789	20581.527344
2481.868164	20490.957031
2480.977539	20344.263672
2480.086914	20478.335938
2479.196289	20418.699219
2478.305664	20589.193359
2477.414063	20624.953125
2476.523438	20610.205078
2475.631836	20343.031250
2474.740234	20774.216797
2473.848633	20341.679688
2472.957031	20489.580078
2472.065430	20404.792969
2471.172852	20656.318359
2470.280273	20075.593750
2469.388672	20497.974609
2468.496094	20690.535156
2467.602539	20510.564453
2466.709961	20456.656250
2465.817383	20383.167969
2464.923828	20264.919922
2464.030273	20278.244141
2463.136719	20571.369141
2462.243164	20299.279297
2461.349609	20139.167969
2460.456055	20090.974609
2459.561523	20171.419922
2458.666992	20352.482422
2457.773438	20200.853516
2456.878906	20345.515625
2455.983398	20381.150391
2455.088867	20291.054688
2454.194336	20133.951172
2453.298828	20189.152344
2452.403320	20018.156250
2451.507813	20441.880859
2450.612305	20307.187500
2449.716797	20353.945313
2448.820313	20071.417969
2447.924805	20054.031250
2447.028320	20173.333984
2446.131836	20334.427734
2445.235352	19918.248047
2444.338867	20305.158203
2443.442383	19995.050781
2442.544922	19924.736328
2441.647461	19918.535156
2440.750000	19814.824219
2439.852539	19931.210938
2438.955078	20053.128906
2438.057617	19974.505859
2437.160156	20051.826172
2436.261719	20012.201172
2435.363281	20053.304688
2434.464844	20080.478516
2433.566406	20090.947266
2432.667969	19839.923828
2431.768555	19730.832031
2430.870117	19852.587891
2429.970703	19924.255859
2429.071289	19609.490234
2428.171875	19211.449219
2427.272461	19533.294922
2426.373047	19866.142578
2425.472656	19562.710938
2424.572266	19801.001953
2423.672852	19558.781250
2422.772461	19530.437500
2421.871094	19671.447266
2420.970703	19537.619141
2420.070313	19628.623047
2419.168945	19661.328125
2418.267578	19491.503906
2417.366211	19649.037109
2416.464844	19592.974609
2415.563477	19503.658203
2414.661133	19425.460938
2413.759766	19624.472656
2412.857422	19393.855469
2411.955078	19578.947266
2411.052734	19478.625000
2410.150391	19342.326172
2409.248047	19399.935547
2408.344727	19352.302734
2407.441406	19105.355469
2406.538086	19362.271484
2405.634766	19596.957031
2404.731445	19372.228516
2403.828125	19238.873047
2402.923828	19617.294922
2402.020508	19304.177734
2401.116211	19397.644531
2400.211914	19231.197266
2399.307617	19352.287109
2398.403320	19277.107422
2397.498047	19058.261719
2396.593750	19038.414063
2395.688477	19024.095703
2394.783203	19012.544922
2393.877930	19053.460938
2392.972656	19058.472656
2392.066406	19358.845703
2391.161133	19217.523438
2390.254883	19269.414063
2389.348633	19288.175781
2388.442383	19160.730469
2387.536133	18969.890625
2386.629883	18972.148438
2385.722656	18922.017578
2384.815430	19034.546875
2383.909180	19083.642578
2383.001953	18904.000000
2382.093750	19038.513672
2381.186523	18908.525391
2380.279297	19056.759766
2379.371094	18833.183594
2378.462891	19025.431641
2377.554688	18980.871094
2376.646484	18892.285156
2375.738281	18935.820313
2374.829102	18995.849609
2373.920898	18824.775391
2373.011719	18838.042969
2372.102539	18810.054688
2371.193359	18798.572266
2370.284180	18712.869141
2369.375000	18772.871094
2368.464844	18775.138672
2367.554688	18804.882813
2366.644531	18851.099609
2365.734375	18803.910156
2364.824219	18976.435547
2363.914063	18761.750000
2363.002930	18684.400391
2362.092773	18865.089844
2361.181641	18988.083984
2360.270508	18814.699219
2359.359375	18830.667969
2358.447266	18797.255859
2357.536133	18815.962891
2356.624023	18749.660156
2355.711914	18595.652344
2354.800781	18548.595703
2353.887695	18545.404297
2352.975586	18550.435547
2352.063477	18700.662109
2351.150391	18656.357422
2350.237305	18423.097656
2349.324219	18559.576172
2348.411133	18430.447266
2347.498047	18596.984375
2346.584961	18290.000000
2345.670898	18557.748047
2344.756836	18527.195313
2343.843750	18537.683594
2342.929688	18479.794922
2342.014648	18665.289063
2341.100586	18681.214844
2340.185547	18407.382813
2339.271484	18333.154297
2338.356445	18570.462891
2337.441406	18332.306641
2336.526367	18697.917969
2335.610352	18375.154297
2334.695313	18320.107422
2333.779297	18259.617188
2332.863281	18316.527344
2331.947266	18086.843750
2331.031250	18427.556641
2330.115234	18247.041016
2329.198242	18249.353516
2328.282227	18273.484375
2327.365234	18177.621094
2326.448242	18209.933594
2325.531250	18138.648438
2324.614258	18056.482422
2323.696289	18088.796875
2322.779297	18145.621094
2321.861328	18284.146484
2320.943359	18308.232422
2320.025391	18187.982422
2319.107422	18261.083984
2318.188477	18045.603516
2317.270508	18156.806641
2316.351563	18031.218750
2315.432617	18341.003906
2314.513672	17959.714844
2313.594727	18141.570313
2312.674805	18271.695313
2311.755859	17925.958984
2310.835938	18268.113281
2309.916016	17955.111328
2308.996094	17780.812500
2308.076172	18041.300781
2307.156250	17972.992188
2306.235352	18108.414063
2305.315430	17695.228516
2304.394531	17874.093750
2303.473633	17868.296875
2302.551758	17960.212891
2301.630859	17913.695313
2300.709961	17883.472656
2299.788086	17893.951172
2298.866211	17733.546875
2297.944336	17822.693359
2297.022461	17789.791016
2296.100586	17811.121094
2295.177734	17718.601563
2294.255859	17691.154297
2293.333008	17950.929688
2292.410156	17825.921875
2291.487305	17663.037109
2290.563477	17768.314453
2289.640625	17670.478516
2288.716797	17556.433594
2287.793945	17786.185547
2286.870117	17699.218750
2285.946289	17309.230469
2285.021484	17395.519531
2284.097656	17562.923828
2283.172852	17603.164063
2282.249023	17681.244141
2281.324219	17421.357422
2280.399414	17539.986328
2279.473633	17480.205078
2278.548828	17550.142578
2277.623047	17271.544922
2276.698242	17503.564453
2275.772461	17873.238281
2274.846680	17511.019531
2273.919922	17499.896484
2272.994141	17691.222656
2272.067383	17477.658203
2271.141602	17498.923828
2270.214844	17382.589844
2269.288086	17236.623047
2268.361328	17595.039063
2267.433594	17419.421875
2266.506836	16982.351563
2265.579102	17235.496094
2264.651367	17367.273438
2263.723633	17256.486328
2262.795898	17210.396484
2261.867188	17183.179688
2260.939453	17441.455078
2260.010742	17169.162109
2259.082031	17225.425781
2258.153320	17144.384766
2257.224609	16977.246094
2256.295898	17071.185547
2255.366211	16939.091797
2254.437500	16968.443359
2253.507813	17040.816406
2252.578125	17040.558594
2251.648438	16913.937500
2250.717773	16897.572266
2249.788086	16951.091797
2248.857422	17063.708984
2247.926758	16985.529297
2246.996094	17004.082031
2246.065430	16869.537109
2245.134766	17116.355469
2244.203125	16694.554688
2243.272461	16941.316406
2242.340820	16817.609375
2241.409180	16857.634766
2240.477539	16940.576172
2239.544922	16658.658203
2238.613281	16779.152344
2237.680664	16837.927734
2236.748047	16767.984375
2235.816406	16617.644531
2234.882813	16995.361328
2233.950195	16745.882813
2233.017578	16641.169922
2232.083984	16523.099609
2231.150391	16576.486328
2230.216797	16453.111328
2229.283203	16659.103516
2228.349609	16699.052734
2227.415039	16819.281250
2226.481445	16746.792969
2225.546875	16345.228516
2224.612305	16481.505859
2223.677734	16553.542969
2222.742188	16414.291016
2221.807617	16406.101563
2220.872070	16673.261719
2219.937500	16432.494141
2219.001953	16643.437500
2218.066406	16509.630859
2217.129883	16498.757813
2216.194336	16375.706055
2215.257813	16525.087891
2214.321289	16468.824219
2213.384766	16420.589844
2212.448242	16262.935547
2211.511719	16433.580078
2210.575195	16606.833984
2209.637695	16470.570313
2208.700195	16267.670898
2207.762695	16272.852539
2206.825195	16131.382813
2205.887695	16312.533203
2204.949219	16474.962891
2204.011719	16296.219727
2203.073242	16224.118164
2202.134766	16168.025391
2201.196289	16111.951172
2200.257813	16149.105469
2199.318359	16292.751953
2198.379883	15999.748047
2197.440430	16028.915039
2196.500977	15970.250000
2195.561523	15895.638672
2194.621094	15938.108398
2193.681641	15876.827148
2192.741211	16116.081055
2191.801758	15937.794922
2190.861328	16190.247070
2189.920898	16115.671875
2188.979492	16078.328125
2188.039063	15953.312500
2187.097656	16024.931641
2186.156250	15836.217773
2185.214844	15867.995117
2184.273438	16056.421875
2183.332031	15971.336914
2182.390625	15947.331055
2181.448242	16087.874023
2180.505859	15880.768555
2179.563477	15482.720703
2178.621094	15896.477539
2177.678711	15631.166016
2176.735352	15957.250977
2175.792969	15851.086914
2174.849609	15779.418945
2173.906250	15699.823242
2172.962891	15890.530273
2172.019531	15691.724609
2171.075195	15633.375000
2170.130859	15797.507813
2169.187500	15561.749023
2168.243164	15839.676758
2167.298828	15569.581055
2166.353516	15701.850586
2165.409180	15794.381836
2164.463867	15923.919922
2163.518555	15706.897461
2162.573242	15672.433594
2161.627930	15743.750000
2160.682617	15608.826172
2159.736328	15709.205078
2158.791016	15648.333008
2157.844727	15561.058594
2156.898438	15767.067383
2155.952148	15656.028320
2155.004883	15753.666992
2154.058594	15629.463867
2153.111328	15637.308594
2152.164063	15653.068359
2151.216797	15399.626953
2150.269531	15320.427734
2149.322266	15481.336914
2148.374023	15489.198242
2147.426758	15410.022461
2146.478516	15560.284180
2145.530273	15491.668945
2144.582031	15496.883789
2143.632813	15367.684570
2142.684570	15502.036133
2141.735352	15312.285156
2140.786133	15375.475586
2139.836914	15309.594727
2138.887695	15177.904297
2137.938477	15359.558594
2136.988281	15464.812500
2136.039063	15298.948242
2135.088867	15483.116211
2134.138672	15201.544922
2133.187500	15154.182617
2132.237305	15180.476563
2131.286133	15151.541016
2130.335938	15422.332031
2129.384766	15085.810547
2128.433594	15127.865234
2127.482422	15222.459961
2126.530273	15222.438477
2125.579102	15151.493164
2124.626953	15125.218750
2123.674805	15127.838867
2122.722656	15122.581055
2121.770508	15028.074219
2120.817383	15035.957031
2119.865234	14910.008789
2118.912109	14789.350586
2117.958984	14852.355469
2117.005859	14988.773438
2116.052734	15117.277344
2115.098633	15015.017578
2114.145508	14894.443359
2113.191406	14857.778320
2112.237305	14656.039063
2111.283203	14894.524414
2110.329102	14886.692383
2109.374023	14721.718750
2108.418945	14698.206055
2107.464844	14802.990234
2106.509766	14826.588867
2105.554688	14852.795898
2104.598633	14622.549805
2103.643555	14661.863281
2102.687500	14816.261719
2101.731445	14711.679688
2100.775391	14761.416016
2099.819336	14669.951172
2098.863281	14764.114258
2097.906250	14753.701172
2096.950195	14944.502930
2095.993164	14492.518555
2095.036133	14599.706055
2094.079102	14730.361328
2093.121094	14529.334961
2092.164063	14534.635742
2091.206055	14534.711914
2090.248047	14837.542969
2089.290039	14516.598633
2088.332031	14399.270508
2087.374023	14623.707031
2086.415039	14425.547852
2085.456055	14519.516602
2084.498047	14470.055664
2083.538086	14334.586914
2082.579102	14509.316406
2081.620117	14454.669922
2080.660156	14512.073242
2079.700195	14426.183594
2078.741211	14361.160156
2077.780273	14280.534180
2076.820313	14254.611328
2075.860352	14548.881836
2074.899414	14439.633789
2073.938477	14322.617188
2072.977539	14137.995117
2072.016602	14504.915039
2071.055664	14307.320313
2070.094727	14419.241211
2069.132813	14442.724609
2068.170898	14276.436523
2067.208984	14219.365234
2066.247070	14183.102539
2065.285156	14024.739258
2064.322266	14017.095703
2063.360352	13947.121094
2062.397461	13892.750977
2061.434570	13874.748047
2060.471680	14092.975586
2059.507813	13846.545898
2058.544922	14046.536133
2057.581055	13984.409180
2056.617188	14142.799805
2055.653320	14091.051758
2054.689453	14070.439453
2053.724609	13946.125000
2052.760742	13998.126953
2051.795898	13796.114258
2050.831055	13897.358398
2049.866211	13710.978516
2048.901367	13933.951172
2047.935547	13965.187500
2046.970703	13856.577148
2046.004883	13841.210938
2045.039063	13810.318359
2044.073242	13844.139648
2043.107422	13764.088867
2042.140625	13857.413086
2041.174805	13684.261719
2040.208008	13586.175781
2039.241211	13583.800781
2038.274414	13615.038086
2037.306641	13589.393555
2036.339844	13625.787109
2035.372070	13703.512695
2034.404297	13566.767578
2033.436523	13502.399414
2032.468750	13484.541992
2031.500977	13639.705078
2030.532227	13549.538086
2029.564453	13531.680664
2028.595703	13224.762695
2027.626953	13449.534180
2026.657227	13302.700195
2025.688477	13483.524414
2024.718750	13432.163086
2023.750000	13471.073242
2022.780273	13422.308594
2021.810547	13427.694336
2020.839844	13384.108398
2019.870117	13544.111328
2018.899414	13425.802734
2017.928711	13531.644531
2016.958984	13243.393555
2015.987305	13277.127930
2015.016602	13328.872070
2014.045898	13244.166016
2013.074219	13223.832031
2012.102539	13247.250977
2011.130859	13401.875000
2010.159180	13281.200195
2009.187500	13219.721680
2008.214844	13194.264648
2007.242188	12981.130859
2006.269531	13194.787109
2005.296875	12889.202148
2004.324219	12984.593750
2003.351563	13082.520508
2002.377930	12995.459961
2001.404297	12964.933594
2000.430664	12785.479492
1999.457031	12857.696289
1998.483398	13119.843750
1997.509766	13055.949219
1996.535156	13171.703125
1995.560547	12882.044922
1994.585938	12841.311523
1993.611328	12667.224609
1992.636719	12800.913086
1991.661133	12890.968750
1990.685547	13032.260742
1989.710938	12850.571289
1988.735352	12912.382813
1987.758789	12733.339844
1986.783203	12713.176758
1985.806641	12821.079102
1984.831055	12818.832031
1983.854492	12801.224609
1982.877930	12788.741211
1981.901367	12745.550781
1980.923828	12663.991211
1979.946289	12636.186523
1978.969727	12618.624023
1977.992188	12496.207031
1977.014648	12765.069336
1976.036133	12739.822266
1975.058594	12515.198242
1974.080078	12443.998047
1973.101563	12577.248047
1972.123047	12523.945313
1971.144531	12531.966797
1970.166016	12391.855469
1969.186523	12545.446289
1968.208008	12451.335938
1967.228516	12638.045898
1966.249023	12531.190430
1965.268555	12393.750977
1964.289063	12460.460938
1963.308594	12340.937500
1962.329102	12331.121094
1961.348633	12474.303711
1960.367188	12423.674805
1959.386719	12357.769531
1958.406250	12350.503906
1957.424805	12284.632813
1956.443359	12292.667969
1955.461914	12394.948242
1954.480469	12153.373047
1953.499023	12370.226563
1952.516602	12360.417969
1951.534180	12096.065430
1950.552734	12302.633789
1949.569336	12081.640625
1948.586914	12097.328125
1947.604492	12148.622070
1946.621094	12421.158203
1945.637695	12210.468750
1944.655273	12032.903320
1943.670898	12124.840820
1942.687500	12211.662109
1941.704102	12046.893555
1940.719727	12016.831055
1939.735352	12042.662109
1938.750977	12088.800781
1937.766602	11944.480469
1936.782227	12188.643555
1935.796875	12006.281250
1934.811523	11983.869141
1933.826172	11895.491211
1932.840820	11855.345703
1931.855469	11845.653320
1930.870117	12097.181641
1929.883789	12029.128906
1928.897461	11996.592773
1927.911133	11898.164063
1926.924805	11929.018555
1925.938477	11883.846680
1924.951172	11945.092773
1923.964844	11874.603516
1922.977539	11672.445313
1921.990234	11905.877930
1921.002930	11703.785156
1920.014648	11754.882813
1919.027344	11803.430664
1918.039063	11808.946289
1917.050781	11895.415039
1916.062500	11814.912109
1915.074219	11779.957031
1914.084961	11813.285156
1913.096680	11775.814453
1912.107422	11579.115234
1911.118164	11726.182617
1910.128906	11868.145508
1909.138672	11686.689453
1908.149414	11512.875000
1907.159180	11488.121094
1906.168945	11677.998047
1905.178711	11319.984375
1904.188477	11295.276367
1903.198242	11442.183594
1902.207031	11419.984375
1901.215820	11594.567383
1900.224609	11610.183594
1899.233398	11709.014648
1898.242188	11669.132813
1897.250000	11520.861328
1896.258789	11418.012695
1895.266602	11405.921875
1894.274414	11431.630859
1893.282227	11469.924805
1892.289063	11374.711914
1891.296875	11382.782227
1890.303711	11257.402344
1889.310547	11215.141602
1888.317383	11238.335938
1887.324219	11447.747070
1886.330078	11231.862305
1885.336914	11315.416992
1884.342773	11240.482422
1883.348633	11215.869141
1882.354492	11025.319336
1881.359375	11020.863281
1880.365234	11212.457031
1879.370117	11152.682617
1878.375000	11173.331055
1877.379883	11249.237305
1876.384766	11159.346680
1875.389648	11114.689453
1874.393555	11318.615234
1873.397461	11138.386719
1872.401367	11038.538086
1871.405273	11079.252930
1870.409180	10929.268555
1869.412109	10972.496094
1868.416016	10955.513672
1867.418945	10848.258789
1866.421875	10966.694336
1865.423828	10839.420898
1864.426758	10722.216797
1863.428711	10823.069336
1862.431641	10710.919922
1861.433594	10724.061523
1860.435547	10862.427734
1859.436523	10787.891602
1858.438477	10713.381836
1857.439453	10776.577148
1856.440430	10749.647461
1855.441406	10757.761719
1854.442383	10593.237305
1853.443359	10496.311523
1852.443359	10647.024414
1851.443359	10827.691406
1850.444336	10710.772461
1849.443359	10736.379883
1848.443359	10634.513672
1847.443359	10545.176758
1846.442383	10445.877930
1845.441406	10626.386719
1844.440430	10574.560547
1843.439453	10547.723633
1842.438477	10426.022461
1841.436523	10676.299805
1840.434570	10457.283203
1839.432617	10510.333984
1838.430664	10453.590820
1837.428711	10297.089844
1836.426758	10449.900391
1835.423828	10413.144531
1834.420898	10378.895508
1833.417969	10344.658203
1832.415039	10278.032227
1831.412109	10378.381836
1830.408203	10441.324219
1829.404297	10312.442383
1828.400391	10310.621094
1827.396484	10239.078125
1826.392578	10274.614258
1825.388672	10218.037109
1824.383789	10452.661133
1823.378906	10328.887695
1822.374023	10511.164063
1821.369141	10228.229492
1820.364258	10174.195313
1819.358398	10023.206055
1818.352539	10001.545898
1817.346680	10225.972656
1816.340820	10293.750977
1815.334961	9998.728516
1814.329102	9979.570313
1813.322266	10097.033203
1812.315430	10207.003906
1811.308594	10272.241211
1810.301758	10275.390625
1809.294922	10104.788086
1808.287109	10167.525391
1807.279297	10093.771484
1806.271484	10208.584961
1805.263672	10085.241211
1804.255859	10093.376953
1803.247070	10061.837891
1802.239258	9950.979492
1801.230469	10122.723633
1800.221680	9937.546875
1799.212891	10067.109375
1798.203125	9946.417969
1797.194336	9850.536133
1796.184570	10061.767578
1795.174805	9881.714844
1794.165039	9927.001953
1793.155273	9930.196289
1792.144531	9888.843750
1791.134766	9807.917969
1790.124023	9996.665039
1789.113281	9799.500000
1788.102539	9748.306641
1787.090820	9793.558594
1786.080078	9710.247070
1785.068359	9918.616211
1784.056641	9884.734375
1783.044922	9643.322266
1782.032227	9750.308594
1781.020508	9748.582031
1780.007813	9781.427734
1778.995117	9631.555664
1777.982422	9765.621094
1776.969727	9638.017578
1775.957031	9754.758789
1774.943359	9765.368164
1773.929688	9605.761719
1772.916016	9586.795898
1771.902344	9607.291016
1770.888672	9753.519531
1769.874023	9759.186523
1768.860352	9777.174805
1767.845703	9748.335938
1766.831055	9650.522461
1765.816406	9759.661133
1764.800781	9595.381836
1763.786133	9647.855469
1762.770508	9545.203125
1761.754883	9612.435547
1760.739258	9696.871094
1759.722656	9545.049805
1758.707031	9713.116211
1757.690430	9659.737305
1756.673828	9613.755859
1755.657227	9513.693359
1754.640625	9689.020508
1753.623047	9667.637695
1752.606445	9729.822266
1751.588867	9819.013672
1750.571289	9795.161133
1749.552734	9724.646484
1748.535156	9624.685547
1747.517578	9532.125977
1746.499023	9687.557617
1745.480469	9595.019531
1744.461914	9806.829102
1743.442383	9498.373047
1742.423828	9413.276367
1741.404297	9416.511719
1740.384766	9402.579102
1739.365234	9525.961914
1738.345703	9431.112305
1737.326172	9598.566406
1736.305664	9489.032227
1735.285156	9509.400391
1734.264648	9561.608398
1733.244141	9640.741211
1732.223633	9590.050781
1731.202148	9539.378906
1730.180664	9513.204102
1729.160156	9506.620117
1728.137695	9727.627930
1727.116211	9755.261719
1726.094727	9787.778320
1725.072266	9847.187500
1724.049805	9867.448242
1723.027344	9936.601563
1722.004883	10103.513672
1720.982422	10529.448242
1719.958984	10505.583984
1718.935547	10853.108398
1717.912109	10887.824219
1716.888672	11095.938477
1715.865234	11350.375977
1714.840820	11446.021484
1713.817383	11714.953125
1712.792969	12122.907227
1711.768555	12769.861328
1710.743164	13038.412109
1709.718750	13172.701172
1708.693359	13509.375000
1707.668945	13470.396484
1706.643555	12941.375000
1705.617188	12936.636719
1704.591797	11988.695313
1703.565430	11455.343750
1702.540039	10793.054688
1701.513672	10233.309570
1700.487305	9963.586914
1699.459961	9650.127930
1698.433594	9504.769531
1697.406250	9330.250977
1696.378906	9073.047852
1695.351563	9042.234375
1694.324219	8989.535156
1693.296875	8890.637695
1692.268555	8811.231445
1691.240234	8792.643555
1690.211914	8752.180664
1689.183594	8689.855469
1688.155273	8620.260742
1687.125977	8735.360352
1686.096680	8629.340820
1685.067383	8625.376953
1684.038086	8657.841797
1683.008789	8721.860352
1681.978516	8598.922852
1680.949219	8439.620117
1679.918945	8591.008789
1678.888672	8424.484375
1677.858398	8427.836914
1676.827148	8484.548828
1675.795898	8337.532227
1674.765625	8522.748047
1673.734375	8395.169922
1672.702148	8289.451172
1671.670898	8426.107422
1670.639648	8451.259766
1669.607422	8430.375000
1668.575195	8302.924805
1667.542969	8301.446289
1666.509766	8239.436523
1665.477539	8262.176758
1664.444336	8263.125977
1663.411133	8053.539551
1662.377930	8107.753418
1661.344727	8181.299805
1660.311523	8136.307129
1659.277344	8071.983887
1658.243164	8145.496582
1657.208984	8090.863281
1656.174805	7963.742188
1655.140625	8032.400879
1654.105469	7917.414551
1653.070313	8080.266113
1652.035156	8061.919434
1651.000000	7988.039551
1649.964844	8090.431641
1648.928711	8023.813965
1647.893555	7969.287109
1646.857422	7811.018555
1645.821289	7809.625977
1644.784180	7813.058105
1643.748047	7809.252930
1642.710938	7856.086914
1641.673828	7789.591797
1640.636719	7891.852051
1639.599609	7835.014160
1638.562500	7679.401855
1637.524414	7820.173340
1636.486328	7900.675293
1635.448242	7759.583984
1634.410156	7649.844727
1633.372070	7730.333496
1632.333008	7716.918945
1631.293945	7616.871582
1630.254883	7709.353027
1629.215820	7765.714844
1628.176758	7737.870605
1627.136719	7635.484863
1626.097656	7617.291016
1625.057617	7560.638672
1624.017578	7746.769531
1622.977539	7750.192871
1621.936523	7681.532715
1620.895508	7627.310547
1619.855469	7678.790039
1618.814453	7624.587402
1617.772461	7608.819824
1616.731445	7631.466797
1615.689453	7634.904297
1614.648438	7547.150879
1613.606445	7375.452637
1612.563477	7501.275391
1611.521484	7449.568359
1610.479492	7623.292969
1609.436523	7475.678223
1608.393555	7440.782227
1607.350586	7381.931641
1606.306641	7435.727539
1605.263672	7324.188965
1604.219727	7368.393555
1603.175781	7434.137695
1602.131836	7451.965820
1601.087891	7472.181152
1600.043945	7367.915527
1598.999023	7361.812012
1597.954102	7496.890137
1596.909180	7500.334961
1595.864258	7453.545898
1594.818359	7236.969727
1593.773438	7269.152344
1592.727539	7358.700684
1591.681641	7443.436035
1590.635742	7358.459473
1589.588867	7373.869629
1588.542969	7226.820313
1587.496094	7285.242676
1586.449219	7178.859863
1585.402344	7179.963867
1584.355469	7247.912109
1583.307617	7191.716797
1582.259766	7214.294922
1581.212891	7303.673828
1580.164063	7268.968750
1579.116211	7126.941895
1578.068359	7273.521973
1577.019531	7281.757813
1575.970703	7185.098633
1574.921875	7252.933594
1573.873047	7180.144043
1572.823242	7045.432129
1571.774414	7225.218262
1570.724609	7114.363281
1569.674805	7077.369629
1568.625000	7042.769531
1567.574219	7086.738281
1566.524414	7161.631836
1565.473633	7012.811523
1564.422852	7023.452148
1563.372070	6941.315430
1562.320313	7139.855469
1561.269531	7060.104492
1560.217773	7127.788086
1559.166016	6950.606934
1558.114258	7023.038574
1557.062500	7033.662109
1556.009766	6963.503418
1554.957031	7071.523926
1553.904297	7029.882324
1552.851563	7000.128418
1551.798828	6939.521484
1550.746094	6999.994141
1549.692383	7041.458496
1548.638672	6923.927734
1547.584961	7024.700684
1546.531250	6978.374023
1545.476563	6984.237793
1544.422852	7087.315918
1543.368164	6844.233398
1542.313477	6745.824707
1541.257813	6872.587891
1540.203125	6850.030762
1539.147461	6870.123535
1538.092773	6835.731934
1537.037109	6886.605469
1535.980469	6880.635254
1534.924805	6841.524414
1533.868164	6823.729492
1532.812500	6836.704102
1531.755859	6847.308105
1530.698242	6862.639160
1529.641602	6752.609863
1528.584961	6732.480469
1527.527344	6863.675781
1526.469727	6782.071289
1525.412109	6811.579590
1524.353516	6725.287109
1523.295898	6700.454102
1522.237305	6763.031250
1521.178711	6719.305664
1520.120117	6703.931641
1519.061523	6674.396973
1518.001953	6720.409180
1516.943359	6738.083984
1515.883789	6779.348633
1514.824219	6738.024414
1513.763672	6621.231934
1512.704102	6714.379395
1511.643555	6786.271484
1510.583008	6657.744629
1509.522461	6668.334961
1508.461914	6770.833008
1507.400391	6592.895508
1506.339844	6650.607910
1505.278320	6465.688965
1504.216797	6603.473633
1503.155273	6611.706055
1502.092773	6568.143066
1501.031250	6510.473145
1499.968750	6732.869629
1498.906250	6574.015625
1497.843750	6570.481934
1496.780273	6503.443848
1495.717773	6551.659668
1494.654297	6576.345215
1493.590820	6570.461914
1492.527344	6632.741211
1491.462891	6676.197754
1490.399414	6545.774414
1489.334961	6582.183105
1488.270508	6465.914551
1487.206055	6490.583008
1486.140625	6606.808105
1485.076172	6546.935059
1484.010742	6583.309570
1482.945313	6600.898438
1481.879883	6648.980469
1480.814453	6570.375977
1479.748047	6609.064453
1478.681641	6502.355957
1477.615234	6613.720703
1476.548828	6678.164063
1475.482422	6601.967285
1474.415039	6420.353516
1473.348633	6522.280273
1472.281250	6504.710449
1471.213867	6606.584961
1470.145508	6567.932129
1469.078125	6763.401855
1468.009766	6652.173340
1466.941406	6622.893066
1465.873047	6628.720703
1464.804688	6611.151855
1463.735352	6680.131348
1462.666992	6618.126465
1461.597656	6782.942871
1460.528320	6854.191406
1459.458008	6834.258789
1458.388672	6987.262207
1457.318359	6799.087891
1456.248047	6879.625000
1455.177734	6915.755859
1454.107422	6842.119629
1453.037109	6957.625977
1451.965820	7122.111816
1450.894531	7081.152344
1449.823242	7350.564453
1448.751953	7391.235840
1447.679688	7373.575684
1446.608398	7479.530762
1445.536133	7464.192383
1444.463867	7497.818848
1443.390625	7589.707520
1442.318359	7599.992676
1441.245117	7687.168945
1440.171875	7883.810547
1439.098633	7901.024414
1438.025391	7992.755859
1436.952148	8051.855469
1435.877930	7915.377441
1434.803711	7909.294922
1433.729492	7970.704102
1432.655273	7955.306152
1431.581055	7870.122559
1430.505859	8033.846191
1429.430664	8064.955078
1428.355469	8070.476074
1427.280273	7852.824219
1426.205078	7983.891602
1425.128906	7991.747070
1424.052734	7948.483887
1422.976563	7926.143066
1421.900391	7836.454590
1420.823242	7776.986328
1419.747070	7710.573730
1418.669922	7755.609863
1417.592773	7659.052734
1416.515625	7592.696289
1415.437500	7605.247070
1414.360352	7397.423828
1413.282227	7317.234375
1412.204102	7204.609863
1411.125977	7013.199707
1410.046875	7025.841797
1408.968750	6797.451172
1407.889648	6687.317871
1406.810547	6718.544922
1405.731445	6624.679199
1404.651367	6628.114746
1403.572266	6446.310059
1402.492188	6340.968262
1401.412109	6272.698242
1400.332031	6236.852051
1399.250977	6217.215332
1398.170898	6408.104004
1397.089844	6295.923828
1396.008789	6146.782715
1394.927734	6224.285156
1393.845703	6202.355469
1392.764648	6069.490234
1391.682617	6086.880859
1390.600586	6090.402344
1389.518555	6022.310059
1388.435547	5988.887207
1387.353516	5994.732422
1386.270508	6055.986816
1385.187500	5941.781250
1384.104492	6009.946289
1383.020508	5965.016602
1381.937500	6012.388184
1380.853516	5891.352051
1379.769531	5989.458008
1378.685547	5877.692871
1377.600586	5735.996582
1376.516602	5861.737305
1375.431641	5890.637695
1374.346680	5802.012207
1373.261719	5821.697266
1372.175781	5790.700195
1371.090820	5729.775879
1370.004883	5744.857422
1368.918945	5674.754395
1367.833008	5653.012207
1366.746094	5744.041504
1365.660156	5717.692871
1364.573242	5847.785156
1363.486328	5846.727051
1362.399414	5682.395020
1361.311523	5727.351074
1360.224609	5859.645020
1359.136719	5748.262207
1358.048828	5795.479004
1356.959961	5753.074219
1355.872070	5882.969727
1354.783203	5728.024414
1353.695313	5726.987305
1352.606445	5615.748047
1351.516602	5545.867188
1350.427734	5682.566406
1349.337891	5582.867676
1348.248047	5423.555176
1347.158203	5434.041992
1346.068359	5421.590820
1344.978516	5338.061523
1343.887695	5300.414063
1342.796875	5306.330078
1341.706055	5390.163086
1340.615234	5187.550781
1339.523438	5296.574219
1338.432617	5348.295898
1337.340820	5196.182129
1336.249023	5181.502441
1335.156250	5192.009766
1334.064453	5110.959961
1332.971680	5011.631836
1331.878906	5090.803711
1330.786133	5085.305664
1329.693359	5185.019531
1328.600586	5101.756348
1327.506836	5164.849121
1326.413086	5033.614746
1325.319336	5032.702637
1324.225586	5063.781250
1323.130859	5076.571289
1322.036133	5023.112793
1320.941406	4978.808594
1319.846680	4980.188965
1318.751953	5036.361328
1317.657227	4950.991211
1316.561523	5009.430664
1315.465820	4949.195313
1314.370117	4857.042480
1313.273438	4874.409180
1312.177734	4953.344238
1311.081055	4911.402832
1309.984375	4974.343750
1308.887695	4889.106934
1307.791016	4858.594238
1306.693359	4759.738281
1305.595703	4761.152344
1304.498047	4662.349121
1303.400391	4784.473633
1302.302734	4867.847656
1301.204102	4835.094727
1300.105469	4825.112793
1299.007813	4740.040039
1297.908203	4839.287109
1296.809570	4795.187988
1295.709961	4748.830566
1294.611328	4668.380371
1293.511719	4662.985840
1292.411133	4707.601074
1291.311523	4718.109375
1290.210938	4799.054688
1289.110352	4655.055176
1288.009766	4751.882324
1286.909180	4662.448242
1285.808594	4713.825684
1284.707031	4617.620605
1283.605469	4630.400391
1282.503906	4559.207520
1281.402344	4574.262207
1280.299805	4607.459473
1279.198242	4545.381836
1278.095703	4456.113770
1276.993164	4645.759766
1275.890625	4561.039063
1274.787109	4458.217285
1273.683594	4631.895996
1272.580078	4420.345703
1271.476563	4702.700684
1270.373047	4581.808105
1269.269531	4506.248535
1268.165039	4566.558105
1267.060547	4497.818848
1265.956055	4576.213379
1264.850586	4631.951172
1263.746094	4540.613281
1262.640625	4512.643555
1261.535156	4511.822754
1260.429688	4644.409668
1259.324219	4607.393066
1258.217773	4541.005371
1257.111328	4528.879395
1256.004883	4647.809570
1254.898438	4529.490723
1253.791992	4567.063965
1252.684570	4432.994629
1251.577148	4615.074707
1250.469727	4560.056152
1249.362305	4593.081543
1248.254883	4486.183594
1247.146484	4415.424316
1246.038086	4586.062012
1244.929688	4495.011230
1243.821289	4561.842285
1242.711914	4527.192871
1241.603516	4553.418945
1240.494141	4475.961914
1239.384766	4605.840820
1238.274414	4600.496094
1237.165039	4536.587402
1236.054688	4549.273926
1234.944336	4543.941895
1233.833984	4610.652832
1232.723633	4722.357422
1231.612305	4723.747559
1230.500977	4830.889648
1229.389648	4931.244141
1228.278320	5020.315430
1227.166992	5244.284180
1226.054688	5094.932129
1224.943359	5213.148438
1223.831055	5308.845215
1222.717773	5384.282227
1221.605469	5318.144043
1220.492188	5285.725586
1219.379883	5358.878906
1218.266602	5333.200684
1217.152344	5083.016602
1216.039063	5023.726563
1214.924805	5058.719727
1213.810547	4909.698730
1212.696289	4866.176758
1211.582031	4800.239258
1210.467773	4680.500977
1209.352539	4545.109863
1208.237305	4490.476074
1207.122070	4375.341797
1206.006836	4419.364746
1204.890625	4297.563477
1203.774414	4363.986816
1202.658203	4215.361816
1201.541992	4304.169434
1200.425781	4207.106445
1199.308594	4302.598633
1198.191406	4335.386230
1197.074219	4215.992188
1195.957031	4161.525391
1194.839844	4133.922363
1193.721680	4133.167480
1192.603516	4060.856201
1191.485352	4124.951172
1190.367188	4162.199219
1189.249023	4063.102051
1188.129883	4071.298340
1187.010742	4081.725342
1185.891602	4029.604736
1184.772461	4035.568604
1183.652344	3981.242188
1182.533203	4036.327148
1181.413086	3957.467285
1180.292969	4014.767578
1179.171875	3978.333984
1178.051758	3941.913574
1176.930664	4003.645752
1175.809570	3936.013184
1174.688477	3863.945801
1173.566406	3892.219482
1172.445313	3969.516602
1171.323242	3904.167480
1170.201172	3838.841797
1169.079102	3733.443359
1167.956055	3795.122070
1166.833984	3720.944580
1165.710938	3649.020508
1164.587891	3737.392090
1163.464844	3732.257568
1162.340820	3664.820557
1161.216797	3615.206055
1160.092773	3703.518311
1158.968750	3676.154053
1157.844727	3655.469971
1156.719727	3632.570068
1155.595703	3634.128418
1154.470703	3549.016113
1153.345703	3710.565430
1152.219727	3569.932617
1151.094727	3564.837402
1149.968750	3568.626465
1148.842773	3576.854492
1147.716797	3514.043945
1146.589844	3520.059082
1145.462891	3439.529053
1144.336914	3481.053955
1143.209961	3447.143066
1142.082031	3417.680420
1140.955078	3410.402344
1139.827148	3343.267578
1138.699219	3411.370361
1137.571289	3452.853760
1136.443359	3423.416260
1135.314453	3380.696777
1134.185547	3353.497803
1133.056641	3472.471436
1131.927734	3288.058350
1130.798828	3269.745850
1129.668945	3357.681885
1128.539063	3334.937256
1127.409180	3371.939697
1126.279297	3276.199463
1125.149414	3317.622314
1124.018555	3325.859863
1122.887695	3157.219238
1121.756836	3251.693604
1120.625977	3257.728271
1119.494141	3274.808838
1118.362305	3165.952148
1117.231445	3213.968018
1116.098633	3226.629883
1114.966797	3166.419678
1113.833984	3079.739014
1112.702148	3118.905762
1111.569336	3162.471680
1110.435547	3051.567627
1109.302734	3150.281738
1108.168945	3096.767822
1107.036133	3127.073730
1105.901367	3157.368408
1104.767578	3158.993652
1103.633789	3096.700684
1102.499023	3054.263428
1101.364258	3157.255859
1100.229492	3094.996826
1099.094727	2999.724121
1097.958984	3030.002197
1096.823242	3084.487305
1095.687500	3028.890381
1094.551758	3109.765137
1093.416016	3131.198730
1092.279297	3137.224121
1091.142578	3004.671631
1090.005859	3010.717773
1088.869141	2955.194824
1087.731445	3011.810791
1086.594727	3068.406006
1085.457031	3072.237793
1084.319336	3078.265381
1083.180664	3108.455078
1082.042969	3171.579590
1080.904297	3120.489502
1079.765625	3119.916504
1078.626953	3176.417969
1077.487305	3298.741943
1076.348633	3289.358398
1075.208984	3306.305908
1074.069336	3492.151367
1072.929688	3601.167969
1071.789063	3613.662842
1070.648438	3792.771973
1069.508789	3984.966553
1068.367188	4065.321777
1067.226563	4075.530273
1066.085938	4168.983398
1064.944336	4150.694336
1063.802734	4053.574219
1062.661133	4030.933838
1061.518555	3898.844971
1060.376953	3727.407227
1059.234375	3571.350586
1058.091797	3426.291016
1056.948242	3430.036133
1055.805664	3247.874268
1054.662109	3266.957520
1053.518555	3063.029297
1052.375000	2977.215332
1051.231445	2887.061768
1050.086914	2866.864746
1048.942383	2879.445801
1047.797852	2830.861328
1046.653320	2852.179443
1045.508789	2676.974609
1044.363281	2635.003174
1043.217773	2713.095459
1042.072266	2649.309570
1040.926758	2653.185791
1039.780273	2643.971680
1038.634766	2597.682129
1037.488281	2581.939209
1036.341797	2662.134521
1035.194336	2659.464600
1034.047852	2648.077637
1032.900391	2477.621338
1031.752930	2492.416016
1030.605469	2613.941162
1029.457031	2559.012695
1028.308594	2589.026367
1027.161133	2507.997559
1026.011719	2557.599365
1024.863281	2507.073730
1023.714844	2447.863281
1022.565430	2540.958008
1021.416016	2486.113037
1020.266602	2411.716064
1019.116211	2543.902588
1017.966797	2515.173340
1016.816406	2438.638428
1015.666016	2488.169678
1014.514648	2461.639160
1013.364258	2382.983643
1012.212891	2473.763184
1011.061523	2514.565186
1009.910156	2418.574463
1008.758789	2437.664795
1007.606445	2432.874756
1006.454102	2477.993652
1005.301758	2395.096924
1004.149414	2422.853271
1002.997070	2541.683350
1001.843750	2454.483887
1000.690430	2404.170166
999.537109	2386.386963
998.383789	2414.118896
997.229492	2353.006592
996.076172	2393.731934
994.921875	2317.484863
993.766602	2308.395264
992.612305	2403.232666
991.457031	2435.259521
990.302734	2408.838867
989.146484	2371.608398
987.991211	2392.805664
986.835938	2405.342529
985.679688	2374.621094
984.523438	2439.051270
983.367188	2384.553955
982.210938	2453.281250
981.053711	2372.868164
979.896484	2445.893555
978.739258	2371.992188
977.582031	2313.237305
976.423828	2481.250244
975.266602	2385.792236
974.108398	2411.255859
972.950195	2400.019043
971.791016	2365.049561
970.632813	2362.455322
969.473633	2349.076416
968.314453	2204.143799
967.155273	2367.615234
965.995117	2293.877197
964.835938	2258.965332
963.675781	2366.303223
962.515625	2383.103516
961.354492	2397.743164
960.194336	2240.064941
959.033203	2323.637695
957.872070	2359.811279
956.710938	2284.030029
955.548828	2307.283203
954.387695	2386.477783
953.225586	2336.551514
952.063477	2271.585938
950.901367	2312.029785
949.738281	2315.902832
948.575195	2326.224365
947.412109	2370.934326
946.249023	2271.635498
945.085938	2294.851563
943.921875	2324.503906
942.757813	2317.630127
941.593750	2338.676758
940.429688	2275.976807
939.265625	2339.958252
938.100586	2285.866455
936.935547	2386.303467
935.770508	2349.387451
934.604492	2286.742920
933.439453	2307.767578
932.273438	2309.484863
931.107422	2343.360840
929.941406	2327.922119
928.774414	2321.061523
927.607422	2327.060303
926.440430	2348.053223
925.273438	2392.600342
924.106445	2310.776855
922.938477	2312.490234
921.771484	2350.596436
920.602539	2354.441895
919.434570	2383.965820
918.266602	2359.988525
917.097656	2425.867188
915.928711	2451.083496
914.759766	2380.061523
913.590820	2450.175537
912.420898	2436.895752
911.250977	2451.405029
910.081055	2416.761230
908.911133	2482.543213
907.740234	2362.464600
906.570313	2455.995361
905.399414	2491.839355
904.228516	2489.242676
903.056641	2458.898926
901.885742	2411.493652
900.713867	2504.927979
899.541992	2421.265869
898.370117	2440.012939
897.197266	2424.633057
896.024414	2460.428955
894.852539	2440.787598
893.678711	2310.325684
892.505859	2416.442383
891.332031	2401.080566
890.159180	2407.025635
888.985352	2355.466064
887.810547	2242.175049
886.636719	2350.334229
885.461914	2294.556396
884.287109	2257.952393
883.112305	2223.489502
881.937500	2282.642578
880.761719	2203.521729
879.585938	2298.807861
878.410156	2274.993408
877.234375	2327.715332
876.057617	2261.396729
874.881836	2297.101563
873.705078	2252.058838
872.528320	2139.058838
871.350586	2238.479980
870.173828	2212.583496
868.996094	2241.894775
867.818359	2209.639160
866.639648	2221.962158
865.461914	2225.793213
864.283203	2174.465332
863.104492	2220.724365
861.925781	2264.845215
860.747070	2226.260010
859.567383	2223.726563
858.387695	2187.282715
857.208008	2205.947754
856.028320	2180.113770
854.847656	2177.590332
853.666992	2215.307617
852.486328	2191.603516
851.305664	2129.800293
850.125000	2093.420410
848.943359	2217.893799
847.761719	2137.076416
846.580078	2200.145020
845.398438	2261.074707
844.215820	2184.523682
843.034180	2173.545898
841.851563	2240.788086
840.667969	2206.554443
839.485352	2231.501953
838.301758	2197.282715
837.118164	2175.750000
835.934570	2217.585205
834.750977	2219.284180
833.566406	2231.538574
832.381836	2239.566650
831.197266	2283.468506
830.012695	2308.364014
828.828125	2282.618896
827.642578	2261.101563
826.457031	2271.225098
825.271484	2190.681152
824.084961	2293.568359
822.899414	2341.617676
821.712891	2267.427246
820.526367	2376.562988
819.339844	2363.481689
818.152344	2375.678223
816.964844	2394.187012
815.777344	2461.111328
814.589844	2492.226807
813.402344	2550.689453
812.213867	2592.297119
811.025391	2492.938232
809.836914	2662.845703
808.648438	2708.614746
807.458984	2844.777100
806.269531	2890.495117
805.080078	2988.740479
803.890625	3183.613281
802.701172	3222.939209
801.510742	3482.814453
800.320313	3742.592773
799.129883	4025.372070
797.939453	4465.503906
796.748047	4907.569824
795.556641	5683.157715
794.365234	6655.692383
793.173828	7965.622070
791.981445	9788.945313
790.790039	11926.152344
789.597656	14161.106445
788.404297	16302.989258
787.211914	17102.685547
786.018555	17487.167969
784.825195	16409.101563
783.631836	14445.359375
782.438477	12817.446289
781.244141	11093.817383
780.050781	9492.257813
778.856445	8058.750977
777.661133	7115.490723
776.466797	6084.702148
775.271484	5435.043457
774.076172	4840.008789
772.880859	4136.452148
771.685547	3872.234619
770.489258	3503.592773
769.292969	3329.463867
768.096680	3159.579102
766.900391	2885.293701
765.703125	2792.843994
764.506836	2687.897461
763.309570	2564.197266
762.111328	2455.156982
760.914063	2298.148926
759.715820	2379.110352
758.517578	2297.290527
757.319336	2298.947510
756.121094	2242.202393
754.921875	2177.136719
753.722656	2139.200195
752.523438	2136.715820
751.324219	2061.284912
750.125000	2042.145508
748.924805	2006.345459
747.724609	2010.136597
746.524414	1974.355835
745.323242	1957.328735
744.123047	1988.190918
742.921875	2023.204590
741.720703	1939.582520
740.518555	1924.654907
739.317383	1938.857300
738.115234	1928.095093
736.913086	1842.473389
735.710938	1873.316162
734.507813	1939.486206
733.304688	1872.615601
732.101563	1851.485474
730.898438	1878.147949
729.695313	1869.487793
728.491211	1771.527466
727.287109	1875.017578
726.083008	1847.678223
724.878906	1812.046387
723.673828	1757.750488
722.468750	1738.747559
721.263672	1734.273193
720.058594	1812.764526
718.853516	1677.633911
717.647461	1810.012695
716.441406	1749.558716
715.235352	1792.754639
714.028320	1750.975830
712.822266	1821.088257
711.615234	1781.390991
710.408203	1770.702393
709.200195	1728.958618
707.993164	1722.424194
706.785156	1695.193848
705.577148	1732.126343
704.369141	1738.009033
703.160156	1694.241455
701.951172	1681.514282
700.742188	1724.625122
699.533203	1761.517090
698.324219	1740.515869
697.114258	1705.055298
695.904297	1700.603027
694.694336	1733.339722
693.484375	1652.457520
692.273438	1650.082642
691.062500	1653.902954
689.851563	1694.881104
688.640625	1717.267700
687.428711	1731.391113
686.217773	1704.244263
685.005859	1654.416016
683.792969	1608.731323
682.581055	1676.478638
681.368164	1647.300415
680.155273	1651.114136
678.942383	1669.352783
677.729492	1702.008301
676.515625	1590.440674
675.301758	1695.190552
674.087891	1637.209717
672.874023	1663.669556
671.659180	1669.533203
670.444336	1630.113647
669.229492	1638.039185
668.014648	1571.893311
666.799805	1705.307495
665.583984	1626.833618
664.368164	1612.134155
663.152344	1638.558350
661.935547	1617.695557
660.719727	1637.943237
659.502930	1545.171997
658.286133	1676.361084
657.068359	1647.290649
655.851563	1603.855835
654.633789	1642.565552
653.416016	1556.038574
652.198242	1609.109619
650.979492	1612.911499
649.760742	1653.641846
648.541992	1595.895386
647.323242	1575.086548
646.103516	1564.538086
644.884766	1568.344360
643.665039	1606.994751
642.445313	1610.791382
641.224609	1674.006714
640.004883	1640.914795
638.784180	1654.943726
637.563477	1578.863525
636.341797	1523.286255
635.121094	1602.834473
633.899414	1498.153687
632.677734	1604.278198
631.456055	1554.875122
630.233398	1615.947876
629.010742	1564.515991
627.788086	1537.640259
626.565430	1547.572876
625.342773	1553.413696
624.119141	1587.862305
622.895508	1597.779541
621.671875	1493.295654
620.447266	1523.651123
619.223633	1596.877930
617.999023	1565.952637
616.774414	1563.616699
615.548828	1557.199707
614.324219	1528.339600
613.098633	1550.493286
611.873047	1554.280884
610.647461	1551.948975
609.420898	1561.851685
608.194336	1492.245728
606.967773	1489.926514
605.741211	1469.267822
604.514648	1517.889648
603.287109	1507.418457
602.059570	1519.354614
600.832031	1521.104736
599.603516	1443.454102
598.375977	1506.283203
597.147461	1495.823853
595.918945	1515.889526
594.689453	1505.432129
593.460938	1509.216431
592.231445	1512.999268
591.001953	1437.485107
589.771484	1504.297729
588.541992	1546.695801
587.311523	1450.897095
586.081055	1554.239502
584.850586	1535.664917
583.619141	1511.004395
582.387695	1488.383545
581.156250	1579.459961
579.924805	1536.536987
578.693359	1526.100220
577.460938	1523.783447
576.228516	1489.009521
574.996094	1506.982910
573.762695	1506.698730
572.530273	1546.963989
571.296875	1544.645142
570.063477	1554.487305
568.829102	1554.194092
567.595703	1515.407837
566.361328	1547.531006
565.126953	1579.641846
563.891602	1548.971802
562.657227	1546.655029
561.421875	1556.483398
560.186523	1535.953003
558.951172	1531.616577
557.714844	1604.151489
556.479492	1539.128418
555.243164	1585.346802
554.005859	1560.786499
552.769531	1661.559937
551.532227	1649.120361
550.294922	1713.468140
549.057617	1727.286011
547.820313	1662.325073
546.582031	1690.283447
545.343750	1706.116821
544.105469	1812.785156
542.866211	1895.193481
541.627930	1894.835449
540.388672	1963.074097
539.149414	1976.823242
537.910156	2113.591064
536.669922	2254.340088
535.429688	2386.971680
534.189453	2515.521484
532.949219	2732.694336
531.708008	2820.832520
530.466797	2914.980713
529.225586	2888.246094
527.984375	2845.411621
526.743164	2764.339355
525.500977	2647.063965
524.258789	2441.278809
523.016602	2354.291748
521.773438	2249.231201
520.530273	2184.439209
519.287109	2011.073730
518.043945	1980.532959
516.800781	1950.003540
515.556641	1798.889648
514.312500	1764.386963
513.068359	1768.071533
511.824219	1715.508301
510.579102	1683.049194
509.333984	1656.626221
508.088867	1632.220825
506.843750	1637.933716
505.597656	1689.802979
504.351563	1707.541626
503.105469	1661.077393
501.859375	1692.854980
500.612305	1732.641846
499.365234	1786.448608
498.118164	1746.018066
496.871094	1653.492676
495.624023	1781.426270
494.375977	1718.981079
493.127930	1776.745361
491.879883	1836.490234
490.630859	1792.090942
489.381836	1789.749512
488.132813	1737.369385
486.883789	1715.027100
485.634766	1768.724243
484.384766	1664.366211
483.134766	1614.049194
481.884766	1563.751343
480.633789	1553.458374
479.383789	1531.175781
478.132813	1548.872437
476.880859	1486.635742
475.629883	1530.305176
474.377930	1494.061646
473.125977	1473.808105
471.874023	1519.451660
470.622070	1455.282837
469.369141	1458.998535
468.116211	1474.686035
466.863281	1424.527832
465.610352	1464.152832
464.356445	1418.004395
463.102539	1475.561401
461.848633	1455.345215
460.594727	1439.123169
459.339844	1452.800171
458.085938	1392.749878
456.831055	1376.548584
455.575195	1344.419678
454.320313	1358.104004
453.064453	1349.882324
451.808594	1333.701294
450.552734	1379.223145
449.295898	1307.327026
448.039063	1342.889160
446.782227	1398.328735
445.525391	1332.435669
444.267578	1367.972656
443.010742	1351.809326
441.752930	1391.304077
440.494141	1351.295898
439.236328	1382.828369
437.977539	1442.159058
436.718750	1330.665283
435.459961	1366.154907
434.201172	1395.675049
432.941406	1371.590576
431.681641	1375.299072
430.421875	1361.148438
429.161133	1352.954590
427.901367	1330.879761
426.640625	1310.796265
425.378906	1338.304565
424.118164	1443.111816
422.856445	1442.837524
421.594727	1361.319946
420.333008	1438.326538
419.071289	1384.571777
417.808594	1346.680664
416.545898	1382.065186
415.283203	1399.619263
414.020508	1363.726074
412.756836	1389.192383
411.493164	1365.185791
410.229492	1473.724609
408.965820	1467.510864
407.701172	1354.519775
406.436523	1405.664673
405.171875	1496.323120
403.907227	1472.322998
402.641602	1521.440308
401.375977	1525.101685
400.110352	1544.562866
398.844727	1550.193237
397.578125	1688.105591
396.311523	1758.848877
395.044922	1736.803955
393.778320	1811.457275
392.510742	1797.302124
391.243164	1769.344727
389.975586	1719.704346
388.708008	1715.433350
387.439453	1691.449951
386.171875	1616.229370
384.902344	1600.156372
383.633789	1582.119141
382.365234	1536.510376
381.095703	1551.973755
379.826172	1478.820068
378.555664	1484.444580
377.286133	1484.161621
376.015625	1456.326660
374.745117	1402.922974
373.474609	1382.983032
372.203125	1449.593506
370.931641	1313.628052
369.660156	1392.022949
368.388672	1397.654907
367.116211	1395.422974
365.844727	1351.926636
364.572266	1316.305420
363.298828	1376.946533
362.026367	1349.189453
360.752930	1335.187622
359.479492	1340.822388
358.206055	1332.715454
356.931641	1314.799805
355.657227	1302.776855
354.382813	1294.681763
353.108398	1308.163574
351.833984	1321.640137
350.558594	1333.151123
349.283203	1327.016235
348.006836	1224.854980
346.731445	1250.093384
345.455078	1267.485962
344.178711	1333.837891
342.902344	1235.669678
341.625000	1280.465454
340.348633	1268.475830
339.070313	1309.333740
337.792969	1228.855835
336.515625	1240.359619
335.237305	1253.814941
333.958984	1298.555542
332.680664	1249.425415
331.401367	1235.502441
330.122070	1202.039307
328.842773	1207.672119
327.563477	1273.870239
326.284180	1248.232422
325.003906	1240.181641
323.723633	1288.761475
322.442383	1261.182983
321.162109	1260.941895
319.880859	1243.136963
318.599609	1328.751099
317.318359	1297.284302
316.036133	1287.284058
314.753906	1251.936890
313.471680	1222.452271
312.189453	1265.103394
310.907227	1216.137939
309.624023	1274.362427
308.340820	1256.584961
307.057617	1209.596924
305.773438	1205.470581
304.489258	1207.187134
303.205078	1203.062744
301.920898	1241.759155
300.635742	1255.143311
299.351563	1243.229614
298.065430	1231.320435
296.780273	1205.801880
295.495117	1279.460938
294.208984	1269.495605
292.922852	1282.858643
291.635742	1204.878906
290.349609	1266.823730
289.062500	1192.761963
287.775391	1227.493896
286.488281	1248.619385
285.200195	1258.087769
283.912109	1261.729126
282.624023	1257.605957
281.335938	1204.974854
280.046875	1282.344360
278.757813	1225.849243
277.468750	1229.492920
276.179688	1291.302002
274.889648	1223.206299
273.600586	1207.466797
272.309570	1253.742065
271.019531	1220.565918
269.729492	1264.883789
268.438477	1223.971436
267.147461	1299.252319
265.855469	1252.541138
264.564453	1248.429932
263.272461	1279.153442
261.980469	1224.733521
260.687500	1272.859619
259.395508	1241.670532
258.102539	1260.769409
256.808594	1216.061157
255.515625	1262.218750
254.221680	1277.437378
252.928711	1279.124512
251.633789	1259.560791
250.339844	1280.565308
249.044922	1270.664185
247.750000	1274.281860
246.455078	1281.758789
245.160156	1318.182617
243.864258	1246.533691
242.568359	1263.657715
241.272461	1282.703979
239.975586	1257.387207
238.679688	1311.133667
237.382813	1295.459839
236.085938	1304.848145
234.788086	1308.451660
233.490234	1321.687012
232.192383	1279.054932
230.894531	1346.216309
229.596680	1380.617676
228.297852	1357.250366
226.999023	1320.418335
225.700195	1347.106812
224.400391	1346.848022
223.100586	1406.223999
221.800781	1292.477417
220.500977	1374.916260
219.201172	1263.141846
217.900391	1326.332397
216.599609	1416.404541
215.297852	1408.446411
213.997070	1412.017944
212.695313	1409.825806
211.393555	1398.032471
210.091797	1392.003784
208.789063	1455.084106
207.486328	1491.270386
206.183594	1479.470215
204.880859	1529.067505
203.577148	1442.456299
202.273438	1442.178833
200.969727	1468.745361
