200.18	4826.5
200.99	4870.8
201.81	4917.8
202.63	4972.2
203.45	5039.3
204.27	5204.1
205.08	5221.3
205.9	5186.5
206.72	5217.9
207.54	5324
208.36	5326.1
209.17	5313.7
209.99	5411.8
210.81	5421.2
211.63	5439.8
212.45	5474.5
213.26	5529.9
214.08	5451.9
214.9	5463.8
215.72	5516.3
216.54	5517
217.35	5420.7
218.17	5462.3
218.99	5538.2
219.81	5458.3
220.63	5441.1
221.44	5461.2
222.26	5536.7
223.08	5703.8
223.9	5734.7
224.72	5761.2
225.53	5768.7
226.35	5714.4
227.17	5777.1
227.99	5822.5
228.81	5866.8
229.62	5955.2
230.44	5924.8
231.26	5840.5
232.08	5763.3
232.9	5788.1
233.71	5783.9
234.53	5729.8
235.35	5646.8
236.17	5569.9
236.99	5617.8
237.81	5623.3
238.62	5603
239.44	5600.3
240.26	5625.3
241.08	5674.1
241.9	5704
242.71	5651.2
243.53	5661
244.35	5606.9
245.17	5592.4
245.99	5769.3
246.8	5701.3
247.62	5663.7
248.44	5665.7
249.26	5706.2
250.08	5598
250.89	5643.2
251.71	5745
252.53	5785.5
253.35	5790
254.17	5742.5
254.98	5724.9
255.8	5818.8
256.62	5849
257.44	5822.6
258.26	5805.6
259.07	5854
259.89	5866.8
260.71	5933
261.53	5950.2
262.35	5850
263.16	5859.4
263.98	5808.9
264.8	5766.2
265.62	5774.8
266.44	5820.7
267.25	5860.2
268.07	5867.8
268.89	5836.6
269.71	5833.8
270.53	5906.9
271.34	5972
272.16	5993.5
272.98	5987.3
273.8	5982.4
274.62	5964.9
275.43	5944.9
276.25	5999.7
277.07	6034.5
277.89	6063.2
278.71	6079.3
279.52	6043.4
280.34	6056.4
281.16	6022
281.98	5956.3
282.8	5965.8
283.61	6055.3
284.43	6055.1
285.25	6031.2
286.07	6187.7
286.89	6142.5
287.7	6173
288.52	6221.2
289.34	6143.2
290.16	6163.3
290.98	6131.2
291.79	6074.6
292.61	6038.5
293.43	6260.4
294.25	6253.9
295.07	6162.4
295.88	6129
296.7	6129.8
297.52	6266
298.34	6369.4
299.16	6329.5
299.97	6237.2
300.79	6252.9
301.61	6270.5
302.43	6248.7
303.25	6270.5
304.06	6288.2
304.88	6296.4
305.7	6306.3
306.52	6374
307.34	6376.5
308.15	6372.3
308.97	6368.7
309.79	6348.3
310.61	6395.3
311.43	6396.3
312.24	6371.4
313.06	6389.8
313.88	6438
314.7	6431.1
315.52	6398.2
316.33	6384.9
317.15	6444.9
317.97	6481.9
318.79	6522
319.61	6582.8
320.42	6525.3
321.24	6465.2
322.06	6428.2
322.88	6443.1
323.7	6617.2
324.51	6555.3
325.33	6512
326.15	6547.7
326.97	6504.2
327.79	6526.4
328.6	6493.3
329.42	6452.2
330.24	6600.3
331.06	6589.7
331.88	6556.9
332.69	6543.1
333.51	6588.2
334.33	6489.5
335.15	6558.3
335.97	6653.5
336.78	6623.9
337.6	6646
338.42	6737
339.24	6777.9
340.06	6717.6
340.87	6770
341.69	6883.8
342.51	6952.3
343.33	6942.1
344.15	6884.2
344.96	7032.5
345.78	7045.2
346.6	6969.8
347.42	7084.7
348.24	7216
349.05	7209.1
349.87	7128.8
350.69	7083.3
351.51	7142.4
352.33	7150.9
353.14	7149.8
353.96	7161.9
354.78	7034.2
355.6	7130.4
356.42	7081.8
357.23	6831.5
358.05	6936
358.87	6950.9
359.69	6964.2
360.51	6962.5
361.32	6857.9
362.14	6866.1
362.96	6929.4
363.78	6949.3
364.6	6801.6
365.41	6899.6
366.23	6900.3
367.05	6913.2
367.87	7008.6
368.69	6989.7
369.5	6981.9
370.32	6974.9
371.14	6981.5
371.96	7073.9
372.78	6966.4
373.59	6938.4
374.41	6969.2
375.23	6900.1
376.05	7008.6
376.87	7018
377.68	6949.8
378.5	6858.2
379.32	6965.1
380.14	7044.7
380.96	7077.2
381.78	7062.1
382.59	7061.2
383.41	7167.9
384.23	7134.8
385.05	7008
385.87	7100.8
386.68	7111.4
387.5	7109.7
388.32	7140.7
389.14	7250.6
389.96	7199.2
390.77	7175.7
391.59	7153.8
392.41	7116.2
393.23	7073.7
394.05	7115.3
394.86	7137.7
395.68	7119.1
396.5	7094.6
397.32	7013.1
398.14	7060.3
398.95	7213.3
399.77	7403.4
400.59	7263.1
401.41	7178.7
402.23	7202.3
403.04	7329.8
403.86	7287.3
404.68	7342.6
405.5	7349.6
406.32	7312.6
407.13	7371.5
407.95	7327.9
408.77	7369.1
409.59	7415.2
410.41	7346.4
411.22	7421.7
412.04	7468.3
412.86	7463.6
413.68	7429.7
414.5	7567
415.31	7509.2
416.13	7490.8
416.95	7524.7
417.77	7507.5
418.59	7651.5
419.4	7648.7
420.22	7559.1
421.04	7476.5
421.86	7550.3
422.68	7439.6
423.49	7437.6
424.31	7577.5
425.13	7481.7
425.95	7472.5
426.77	7456
427.58	7460.8
428.4	7551.2
429.22	7543.4
430.04	7513.4
430.86	7476.4
431.67	7447.7
432.49	7457.7
433.31	7487.3
434.13	7492.1
434.95	7481.1
435.76	7502.1
436.58	7550.8
437.4	7579.7
438.22	7585.3
439.04	7571.7
439.85	7585.5
440.67	7610.6
441.49	7659.5
442.31	7715.6
443.13	7711
443.94	7656.8
444.76	7654.5
445.58	7660.1
446.4	7609.7
447.22	7673
448.03	7695.6
448.85	7698.1
449.67	7667.6
450.49	7503.3
451.31	7668.9
452.12	7768.6
452.94	7763.4
453.76	7704.5
454.58	7804.8
455.4	7853.7
456.21	7874.4
457.03	7874.4
457.85	7810.9
458.67	7697.2
459.49	7729.4
460.3	7891.2
461.12	8078.3
461.94	7892
462.76	7992.1
463.58	8130
464.39	8128.6
465.21	8009.6
466.03	8055.2
466.85	7986.4
467.67	7913
468.48	8144.8
469.3	8144.5
470.12	8124.6
470.94	8069
471.76	7982.4
472.57	7968.6
473.39	7975
474.21	7941
475.03	7888.7
475.85	7882.2
476.66	7974.5
477.48	7891.3
478.3	7804.8
479.12	7826.9
479.94	7902
480.75	7963
481.57	7986.9
482.39	7971.6
483.21	7924.3
484.03	8103.5
484.84	8112.4
485.66	8032.2
486.48	7939.3
487.3	7934.7
488.12	7989.9
488.93	7991.9
489.75	7953
490.57	7924
491.39	8038.4
492.21	8024.5
493.02	7970.2
493.84	7947.1
494.66	8043.1
495.48	7924.7
496.3	8008
497.11	8168.5
497.93	8194.9
498.75	8024.3
499.57	8204.6
500.39	8261.8
501.2	8079.2
502.02	7846.9
502.84	8027.9
503.66	8093.4
504.48	8017
505.29	7877.9
506.11	8172.4
506.93	8177.8
507.75	8091.4
508.57	8019.5
509.38	8056
510.2	8001.9
511.02	8071.8
511.84	8131.9
512.66	8121
513.48	8157.6
514.29	8163
515.11	8184.3
515.93	8191.1
516.75	8138.5
517.57	8062.5
518.38	8079.2
519.2	8086.2
520.02	8051.2
520.84	8001.5
521.66	8081.1
522.47	8056.9
523.29	8010.3
524.11	8031.6
524.93	8177.4
525.75	8199.7
526.56	8142.2
527.38	8075.8
528.2	8091.6
529.02	8094.5
529.84	8083.4
530.65	8070.1
531.47	8105.3
532.29	8326.9
533.11	8287.5
533.93	8255.7
534.74	8254
535.56	8261.5
536.38	8145.6
537.2	8169.1
538.02	8243.2
538.83	8290
539.65	8224.9
540.47	8154.1
541.29	8192.7
542.11	8208.1
542.92	8171.1
543.74	8202.4
544.56	8277.6
545.38	8266.8
546.2	8282.8
547.01	8387.2
547.83	8267.2
548.65	8225.3
549.47	8201.2
550.29	8243.3
551.1	8420.4
551.92	8268
552.74	8231.3
553.56	8294.3
554.38	8371.5
555.19	8273.9
556.01	8403.2
556.83	8330
557.65	8219.8
558.47	8220.8
559.28	8383.4
560.1	8411.9
560.92	8424.8
561.74	8430
562.56	8421.5
563.37	8456.7
564.19	8430.4
565.01	8484.7
565.83	8538.6
566.65	8383.7
567.46	8457.2
568.28	8469.8
569.1	8434.1
569.92	8390.1
570.74	8427.3
571.55	8450.2
572.37	8415.3
573.19	8450.3
574.01	8588.5
574.83	8526.6
575.64	8463
576.46	8352
577.28	8329.4
578.1	8507.2
578.92	8515.9
579.73	8464.9
580.55	8430.8
581.37	8431.7
582.19	8465.8
583.01	8694.5
583.82	8618
584.64	8577.9
585.46	8621.8
586.28	8529.1
587.1	8668.5
587.91	8690.1
588.73	8671.9
589.55	8691.2
590.37	8820.8
591.19	8744.1
592	8763.4
592.82	8768.2
593.64	8680
594.46	8667.7
595.28	8824.4
596.09	8865.1
596.91	8834.5
597.73	8815.5
598.55	8662.8
599.37	8637.1
600.18	8650.7
601	8691.9
601.82	8772.7
602.64	8900.9
603.46	8898.9
604.27	8935.7
605.09	8967.9
605.91	8826.3
606.73	8788.9
607.55	8905
608.36	8973.7
609.18	8917.5
610	8772.1
610.82	8884.3
611.64	8879.6
612.45	8816
613.27	8770.9
614.09	8851.3
614.91	8839.7
615.73	8855.6
616.54	8820
617.36	8699.3
618.18	8578.5
619	8702.1
619.82	8775.6
620.63	8795.3
621.45	8784.8
622.27	8753
623.09	8781.9
623.91	8759.6
624.72	8740.3
625.54	8776.5
626.36	8800.8
627.18	8774.3
628	8706.8
628.81	8668.9
629.63	8731
630.45	8893.2
631.27	8798
632.09	8720
632.9	8749
633.72	8872.2
634.54	8690.7
635.36	8619.9
636.18	8690.3
636.99	8793.2
637.81	8795.9
638.63	8839.9
639.45	8800.1
640.27	8720.5
641.08	8668.6
641.9	8714.4
642.72	8811
643.54	8756.3
644.36	8718.4
645.17	8704.8
645.99	8663.5
646.81	8688
647.63	8829.7
648.45	8856.6
649.26	8785.7
650.08	8754.9
650.9	8871.3
651.72	8877.2
652.54	9001.9
653.35	9100.8
654.17	8894.1
654.99	8871.8
655.81	8900
656.63	8909.7
657.44	8892.8
658.26	8874.2
659.08	8916.5
659.9	8915.9
660.72	8883.2
661.53	8848.7
662.35	8854.8
663.17	8959.9
663.99	8861.4
664.81	8947.5
665.62	9054.3
666.44	8869.4
667.26	9082.6
668.08	9127
668.9	8999.2
669.72	8907.2
670.53	9061.8
671.35	8966.5
672.17	9031.6
672.99	9010.3
673.81	8999.4
674.62	9146.4
675.44	9190.9
676.26	9040
677.08	8972.5
677.9	9037.7
678.71	9159.6
679.53	8949.8
680.35	8948.5
681.17	8963.6
681.99	9002.5
682.8	9079.7
683.62	9078.9
684.44	8957.6
685.26	8994
686.08	9044.8
686.89	8984.4
687.71	8922.3
688.53	9075.2
689.35	9076
690.17	9032.2
690.98	9049.1
691.8	9123.5
692.62	9088.8
693.44	8969.9
694.26	8992.8
695.07	9135.6
695.89	9000.1
696.71	9027.9
697.53	9057.3
698.35	9086.3
699.16	9133.6
699.98	9230.4
700.8	9112.5
701.62	9011.4
702.44	9014.1
703.25	9090.9
704.07	9138.6
704.89	9165.6
705.71	9110.1
706.53	9190.9
707.34	9276.5
708.16	9145.3
708.98	9041
709.8	9229.7
710.62	9292.2
711.43	9197.4
712.25	9068.1
713.07	9216.8
713.89	9191.3
714.71	9116.2
715.52	9063.8
716.34	9086.8
717.16	9213.6
717.98	9183.4
718.8	9191.4
719.61	9192.1
720.43	9163.3
721.25	9134.5
722.07	9155.6
722.89	9109.7
723.7	9181.8
724.52	9322.1
725.34	9325
726.16	9358.2
726.98	9231
727.79	9196.2
728.61	9218.8
729.43	9186.8
730.25	9242.1
731.07	9239.4
731.88	9314.7
732.7	9351
733.52	9280.2
734.34	9307.5
735.16	9393.1
735.97	9359.8
736.79	9406.6
737.61	9528.8
738.43	9411.8
739.25	9439.1
740.06	9381.4
740.88	9323
741.7	9306.1
742.52	9341.2
743.34	9455.1
744.15	9496.6
744.97	9466.8
745.79	9440.7
746.61	9471.3
747.43	9422.1
748.24	9420.5
749.06	9471.4
749.88	9473.5
750.7	9422.6
751.52	9506.5
752.33	9233.8
753.15	9324.4
753.97	9496.5
754.79	9542.4
755.61	9388.3
756.42	9488.5
757.24	9548.4
758.06	9526.2
758.88	9447.2
759.7	9379
760.51	9455.1
761.33	9556.9
762.15	9447.3
762.97	9368.4
763.79	9436.9
764.6	9472.6
765.42	9475.9
766.24	9536.7
767.06	9601.8
767.88	9552.9
768.69	9307.6
769.51	9406.2
770.33	9421.5
771.15	9390.8
771.97	9395.8
772.78	9470.6
773.6	9490.1
774.42	9490.3
775.24	9455.8
776.06	9455.5
776.87	9530.8
777.69	9666.3
778.51	9482.5
779.33	9353.4
780.15	9390.4
780.96	9482.8
781.78	9493.4
782.6	9549.6
783.42	9639.4
784.24	9629.8
785.05	9579.6
785.87	9543.4
786.69	9533.9
787.51	9743
788.33	9587.4
789.14	9575.4
789.96	9725
790.78	9806.9
791.6	9687.7
792.42	9557.4
793.23	9625.5
794.05	9660.3
794.87	9632
795.69	9921.8
796.51	9524.2
797.32	9656.8
798.14	9735.5
798.96	9661.8
799.78	9591.3
800.6	9473.7
801.41	9453.4
802.23	9615.6
803.05	9730.8
803.87	9677.6
804.69	9588
805.5	9630.3
806.32	9648.2
807.14	9760.3
807.96	9820
808.78	9648.3
809.59	9528.4
810.41	9682.9
811.23	9699.2
812.05	9629.2
812.87	9560.6
813.68	9533.1
814.5	9443.8
815.32	9555.2
816.14	9630.9
816.96	9657.6
817.77	9705.6
818.59	9805.7
819.41	9733.7
820.23	9763.4
821.05	9864.8
821.86	9892.6
822.68	9682.1
823.5	9677.2
824.32	9747.7
825.14	9772.7
825.95	9854
826.77	9946.6
827.59	9577.8
828.41	9748
829.23	9738.2
830.04	9696.3
830.86	9726.9
831.68	9835.5
832.5	9760.2
833.32	9814
834.14	9823
834.95	9857.6
835.77	9879.7
836.59	9713.2
837.41	9813.9
838.23	9821.8
839.04	9781.4
839.86	9736.6
840.68	9735.4
841.5	9832.1
842.32	9886.4
843.13	9851.3
843.95	9883.5
844.77	9954.7
845.59	9972.6
846.41	10190
847.22	10094
848.04	10146
848.86	10257
849.68	10327
850.5	10341
851.31	10357
852.13	10304
852.95	10200
853.77	10156
854.59	10179
855.4	10043
856.22	10113
857.04	10128
857.86	10135
858.68	10130
859.49	10100
860.31	10075
861.13	10177
861.95	10063
862.77	9885.5
863.58	9836.6
864.4	10011
865.22	10029
866.04	9876.2
866.86	9875.5
867.67	9960.1
868.49	10002
869.31	9921.4
870.13	10008
870.95	10188
871.76	10211
872.58	10149
873.4	10122
874.22	10165
875.04	10028
875.85	10163
876.67	10152
877.49	10148
878.31	10335
879.13	10441
879.94	10560
880.76	10727
881.58	10734
882.4	10782
883.22	11065
884.03	11079
884.85	11353
885.67	11528
886.49	11620
887.31	11650
888.12	11629
888.94	11571
889.76	11459
890.58	11416
891.4	11238
892.21	10965
893.03	10815
893.85	10768
894.67	10642
895.49	10441
896.3	10306
897.12	10306
897.94	10375
898.76	10201
899.58	10109
900.39	10128
901.21	10086
902.03	10046
902.85	10275
903.67	10384
904.48	10267
905.3	10081
906.12	10108
906.94	10217
907.76	9948
908.57	10197
909.39	10254
910.21	10140
911.03	10062
911.85	10108
912.66	10163
913.48	10041
914.3	10236
915.12	10182
915.94	10058
916.75	10061
917.57	10180
918.39	10113
919.21	10155
920.03	10191
920.84	10171
921.66	10141
922.48	10204
923.3	10177
924.12	10187
924.93	10198
925.75	10231
926.57	10250
927.39	10152
928.21	9823.3
929.02	9999.7
929.84	10182
930.66	10232
931.48	10189
932.3	10181
933.11	10133
933.93	10079
934.75	10047
935.57	10143
936.39	10202
937.2	10024
938.02	10282
938.84	10051
939.66	10131
940.48	10273
941.29	10290
942.11	10214
942.93	10406
943.75	10438
944.57	10321
945.38	10365
946.2	10477
947.02	10423
947.84	10218
948.66	10323
949.47	10309
950.29	10389
951.11	10467
951.93	10420
952.75	10339
953.56	10295
954.38	10390
955.2	10367
956.02	10265
956.84	10213
957.65	10300
958.47	10230
959.29	10191
960.11	10204
960.93	10191
961.74	10168
962.56	10222
963.38	10148
964.2	10211
965.02	10300
965.83	10285
966.65	10180
967.47	10121
968.29	10282
969.11	10037
969.92	10166
970.74	10220
971.56	10189
972.38	10226
973.2	10299
974.01	10365
974.83	10268
975.65	10315
976.47	10376
977.29	10347
978.1	10323
978.92	10238
979.74	10279
980.56	10264
981.38	10151
982.19	10093
983.01	10251
983.83	10335
984.65	10293
985.47	10116
986.28	10099
987.1	10233
987.92	10310
988.74	10124
989.56	10354
990.37	10355
991.19	10365
992.01	10323
992.83	10254
993.65	10309
994.47	10230
995.28	10237
996.1	10359
996.92	10341
997.74	10193
998.56	10110
999.37	10196
1000.1	10236
1001	10282
1001.8	10273
1002.6	10234
1003.4	10239
1004.2	10326
1005.1	10197
1005.9	10403
1006.7	10444
1007.5	10381
1008.3	10372
1009.1	10471
1010	10430
1010.8	10342
1011.6	10320
1012.4	10265
1013.2	10282
1014.1	10369
1014.9	10327
1015.7	10381
1016.5	10409
1017.3	10501
1018.1	10501
1019	10437
1019.8	10421
1020.6	10368
1021.4	10407
1022.2	10436
1023.1	10446
1023.9	10497
1024.7	10612
1025.5	10693
1026.3	10399
1027.1	10381
1028	10524
1028.8	10606
1029.6	10622
1030.4	10664
1031.2	10725
1032	10594
1032.9	10517
1033.7	10542
1034.5	10631
1035.3	10682
1036.1	10606
1037	10475
1037.8	10574
1038.6	10601
1039.4	10580
1040.2	10504
1041	10433
1041.9	10477
1042.7	10412
1043.5	10495
1044.3	10573
1045.1	10584
1046	10573
1046.8	10539
1047.6	10329
1048.4	10419
1049.2	10605
1050	10616
1050.9	10573
1051.7	10544
1052.5	10464
1053.3	10234
1054.1	10420
1055	10574
1055.8	10575
1056.6	10491
1057.4	10472
1058.2	10572
1059	10418
1059.9	10500
1060.7	10563
1061.5	10599
1062.3	10559
1063.1	10587
1064	10894
1064.8	10526
1065.6	10355
1066.4	10376
1067.2	10479
1068	10580
1068.9	10626
1069.7	10588
1070.5	10488
1071.3	10617
1072.1	10495
1072.9	10514
1073.8	10629
1074.6	10622
1075.4	10553
1076.2	10470
1077	10529
1077.9	10605
1078.7	10634
1079.5	10652
1080.3	10691
1081.1	10685
1081.9	10707
1082.8	10707
1083.6	10794
1084.4	10802
1085.2	10729
1086	10704
1086.9	10770
1087.7	10428
1088.5	10470
1089.3	10623
1090.1	10741
1090.9	10754
1091.8	10677
1092.6	10618
1093.4	10669
1094.2	10677
1095	10766
1095.9	10762
1096.7	10688
1097.5	10661
1098.3	10649
1099.1	10707
1099.9	10548
1100.8	10704
1101.6	10791
1102.4	10741
1103.2	10733
1104	10813
1104.9	10771
1105.7	10719
1106.5	10607
1107.3	10646
1108.1	10712
1108.9	10701
1109.8	10805
1110.6	10619
1111.4	10764
1112.2	10750
1113	10718
1113.9	10782
1114.7	10852
1115.5	10717
1116.3	10541
1117.1	10772
1117.9	10773
1118.8	10816
1119.6	10877
1120.4	10874
1121.2	10834
1122	10824
1122.8	10859
1123.7	10663
1124.5	10589
1125.3	10678
1126.1	10758
1126.9	10716
1127.8	10810
1128.6	10593
1129.4	10604
1130.2	10633
1131	10650
1131.8	10713
1132.7	10822
1133.5	10832
1134.3	10781
1135.1	10825
1135.9	10717
1136.8	10678
1137.6	10713
1138.4	10732
1139.2	10749
1140	10963
1140.8	10766
1141.7	10718
1142.5	10696
1143.3	10767
1144.1	10854
1144.9	10816
1145.8	10820
1146.6	10972
1147.4	10874
1148.2	10762
1149	10803
1149.8	10866
1150.7	10842
1151.5	10890
1152.3	10850
1153.1	10889
1153.9	10750
1154.8	10729
1155.6	10825
1156.4	10858
1157.2	10748
1158	10787
1158.8	10779
1159.7	10779
1160.5	10809
1161.3	10860
1162.1	10905
1162.9	10917
1163.7	10874
1164.6	10714
1165.4	10829
1166.2	10912
1167	10912
1167.8	10927
1168.7	10936
1169.5	10829
1170.3	10696
1171.1	10877
1171.9	11032
1172.7	10904
1173.6	10799
1174.4	10869
1175.2	10934
1176	10743
1176.8	10772
1177.7	11020
1178.5	10987
1179.3	10997
1180.1	10995
1180.9	10995
1181.7	11034
1182.6	10982
1183.4	10905
1184.2	10911
1185	10855
1185.8	10896
1186.7	11002
1187.5	11097
1188.3	11097
1189.1	10882
1189.9	11188
1190.7	10979
1191.6	10953
1192.4	11012
1193.2	10959
1194	10911
1194.8	11101
1195.7	11046
1196.5	10898
1197.3	10902
1198.1	11168
1198.9	11096
1199.7	10997
1200.6	11169
1201.4	11202
1202.2	11167
1203	11208
1203.8	11189
1204.6	11162
1205.5	11151
1206.3	11194
1207.1	11246
1207.9	11204
1208.7	11259
1209.6	11139
1210.4	11249
1211.2	11388
1212	11427
1212.8	11443
1213.6	11556
1214.5	11711
1215.3	11654
1216.1	11580
1216.9	11849
1217.7	12031
1218.6	12101
1219.4	12116
1220.2	12113
1221	12097
1221.8	11960
1222.6	11927
1223.5	11841
1224.3	11761
1225.1	11704
1225.9	11644
1226.7	11521
1227.6	11347
1228.4	11482
1229.2	11589
1230	11279
1230.8	11316
1231.6	11366
1232.5	11469
1233.3	11602
1234.1	11411
1234.9	11216
1235.7	11424
1236.6	11526
1237.4	11475
1238.2	11370
1239	11350
1239.8	11406
1240.6	11405
1241.5	11355
1242.3	11278
1243.1	11323
1243.9	11264
1244.7	11173
1245.5	11226
1246.4	11265
1247.2	11147
1248	11285
1248.8	11196
1249.6	11363
1250.5	11322
1251.3	11408
1252.1	11341
1252.9	11247
1253.7	11344
1254.5	11403
1255.4	11454
1256.2	11361
1257	11211
1257.8	11242
1258.6	11398
1259.5	11330
1260.3	11123
1261.1	11224
1261.9	11394
1262.7	11443
1263.5	11293
1264.4	11368
1265.2	11387
1266	11367
1266.8	11397
1267.6	11506
1268.5	11654
1269.3	11623
1270.1	11684
1270.9	11831
1271.7	11843
1272.5	11810
1273.4	11802
1274.2	11836
1275	11895
1275.8	11917
1276.6	11923
1277.5	12180
1278.3	11998
1279.1	11925
1279.9	11884
1280.7	11795
1281.5	11716
1282.4	11680
1283.2	11724
1284	11625
1284.8	11470
1285.6	11500
1286.5	11491
1287.3	11366
1288.1	11375
1288.9	11552
1289.7	11386
1290.5	11555
1291.4	11369
1292.2	11440
1293	11378
1293.8	11509
1294.6	11654
1295.4	11594
1296.3	11479
1297.1	11535
1297.9	11664
1298.7	11431
1299.5	11466
1300.4	11405
1301.2	11383
1302	11478
1302.8	11574
1303.6	11612
1304.4	11806
1305.3	11770
1306.1	11677
1306.9	11849
1307.7	11990
1308.5	11974
1309.4	11996
1310.2	12151
1311	12224
1311.8	12100
1312.6	12179
1313.4	12473
1314.3	12354
1315.1	12186
1315.9	12042
1316.7	12045
1317.5	12110
1318.4	12024
1319.2	12024
1320	11795
1320.8	11639
1321.6	11639
1322.4	11606
1323.3	11483
1324.1	11501
1324.9	11633
1325.7	11582
1326.5	11465
1327.4	11593
1328.2	11446
1329	11540
1329.8	11506
1330.6	11485
1331.4	11493
1332.3	11523
1333.1	11513
1333.9	11323
1334.7	11596
1335.5	11467
1336.3	11387
1337.2	11550
1338	11553
1338.8	11570
1339.6	11597
1340.4	11569
1341.3	11675
1342.1	11619
1342.9	11579
1343.7	11442
1344.5	11529
1345.3	11711
1346.2	11655
1347	11537
1347.8	11532
1348.6	11540
1349.4	11654
1350.3	11624
1351.1	11552
1351.9	11658
1352.7	11631
1353.5	11627
1354.3	11660
1355.2	11667
1356	11576
1356.8	11391
1357.6	11411
1358.4	11483
1359.3	11678
1360.1	11833
1360.9	11601
1361.7	11514
1362.5	11634
1363.3	11649
1364.2	11522
1365	11531
1365.8	11417
1366.6	11539
1367.4	11573
1368.3	11438
1369.1	11424
1369.9	11551
1370.7	11591
1371.5	11618
1372.3	11791
1373.2	11556
1374	11695
1374.8	11674
1375.6	11682
1376.4	11784
1377.2	11793
1378.1	11842
1378.9	11910
1379.7	11913
1380.5	11878
1381.3	11696
1382.2	11913
1383	11619
1383.8	11871
1384.6	11875
1385.4	11826
1386.2	11741
1387.1	11687
1387.9	11711
1388.7	11744
1389.5	11965
1390.3	11756
1391.2	12087
1392	11949
1392.8	11952
1393.6	11856
1394.4	11774
1395.2	11764
1396.1	11734
1396.9	11679
1397.7	11687
1398.5	11846
1399.3	11671
1400.2	11714
1401	11733
1401.8	11647
1402.6	11614
1403.4	11728
1404.2	11759
1405.1	11553
1405.9	11535
1406.7	11571
1407.5	11501
1408.3	11428
1409.2	11623
1410	11490
1410.8	11588
1411.6	11801
1412.4	11759
1413.2	11644
1414.1	11764
1414.9	11594
1415.7	11541
1416.5	11647
1417.3	11817
1418.2	11752
1419	11683
1419.8	11704
1420.6	11699
1421.4	11687
1422.2	11785
1423.1	11767
1423.9	11627
1424.7	11837
1425.5	11894
1426.3	11851
1427.1	11664
1428	11683
1428.8	11734
1429.6	11752
1430.4	11820
1431.2	11778
1432.1	11768
1432.9	11940
1433.7	11760
1434.5	11768
1435.3	11756
1436.1	11728
1437	11747
1437.8	11870
1438.6	11910
1439.4	11819
1440.2	11903
1441.1	11760
1441.9	11608
1442.7	11916
1443.5	11811
1444.3	11864
1445.1	11828
1446	11707
1446.8	11707
1447.6	11736
1448.4	11636
1449.2	11652
1450.1	11777
1450.9	11897
1451.7	11798
1452.5	11687
1453.3	11670
1454.1	11684
1455	11691
1455.8	11677
1456.6	11681
1457.4	11701
1458.2	11673
1459.1	11705
1459.9	11759
1460.7	11872
1461.5	11786
1462.3	11682
1463.1	11697
1464	11691
1464.8	11625
1465.6	11623
1466.4	11607
1467.2	11484
1468	11690
1468.9	11668
1469.7	11813
1470.5	11756
1471.3	11747
1472.1	11647
1473	11550
1473.8	11643
1474.6	11720
1475.4	11728
1476.2	11797
1477	11741
1477.9	11748
1478.7	11893
1479.5	11626
1480.3	11770
1481.1	11832
1482	11818
1482.8	11721
1483.6	11540
1484.4	11566
1485.2	11762
1486	11754
1486.9	11731
1487.7	11633
1488.5	11545
1489.3	11931
1490.1	11773
1491	11823
1491.8	11765
1492.6	11747
1493.4	11741
1494.2	11723
1495	11759
1495.9	11788
1496.7	11733
1497.5	11801
1498.3	11990
1499.1	11964
1500	11982
1500.8	11874
1501.6	11783
1502.4	11799
1503.2	11786
1504	11776
1504.9	11785
1505.7	11727
1506.5	11752
1507.3	11726
1508.1	11684
1508.9	11791
1509.8	11834
1510.6	11709
1511.4	11825
1512.2	11978
1513	11885
1513.9	11781
1514.7	11662
1515.5	11517
1516.3	11764
1517.1	11717
1517.9	11589
1518.8	11828
1519.6	11897
1520.4	11794
1521.2	11905
1522	11871
1522.9	11669
1523.7	11742
1524.5	11870
1525.3	11765
1526.1	11752
1526.9	11800
1527.8	11742
1528.6	11892
1529.4	11904
1530.2	11736
1531	11828
1531.9	11810
1532.7	11742
1533.5	11936
1534.3	12049
1535.1	11911
1535.9	11826
1536.8	11869
1537.6	11844
1538.4	11885
1539.2	11910
1540	11622
1540.9	11777
1541.7	11823
1542.5	11668
1543.3	11893
1544.1	11963
1544.9	11915
1545.8	11897
1546.6	11904
1547.4	11971
1548.2	11900
1549	11915
1549.8	12022
1550.7	11900
1551.5	11873
1552.3	11942
1553.1	11778
1553.9	11743
1554.8	11713
1555.6	11746
1556.4	11703
1557.2	11639
1558	11697
1558.8	11638
1559.7	11655
1560.5	11775
1561.3	11632
1562.1	11747
1562.9	11852
1563.8	11763
1564.6	11902
1565.4	11906
1566.2	11771
1567	11689
1567.8	11790
1568.7	11859
1569.5	11821
1570.3	12002
1571.1	11937
1571.9	11712
1572.8	12031
1573.6	11914
1574.4	11961
1575.2	12111
1576	11992
1576.8	11863
1577.7	11770
1578.5	11829
1579.3	11847
1580.1	11803
1580.9	11889
1581.8	11854
1582.6	11686
1583.4	11901
1584.2	11898
1585	11767
1585.8	11984
1586.7	11890
1587.5	12092
1588.3	11897
1589.1	11962
1589.9	11946
1590.8	11902
1591.6	11976
1592.4	11929
1593.2	11856
1594	11978
1594.8	12040
1595.7	12229
1596.5	12077
1597.3	12121
1598.1	12133
1598.9	12103
1599.7	12076
1600.6	12164
1601.4	12192
1602.2	12078
1603	11992
1603.8	12044
1604.7	11940
1605.5	11622
1606.3	11743
1607.1	12039
1607.9	11916
1608.7	11896
1609.6	11545
1610.4	11855
1611.2	11846
1612	11793
1612.8	11720
1613.7	11657
1614.5	11680
1615.3	11786
1616.1	11840
1616.9	11863
1617.7	11854
1618.6	11775
1619.4	12023
1620.2	11959
1621	11966
1621.8	11863
1622.7	12162
1623.5	11819
1624.3	11930
1625.1	11914
1625.9	11930
1626.7	11947
1627.6	11903
1628.4	11852
1629.2	11892
1630	11939
1630.8	11881
1631.7	11799
1632.5	11701
1633.3	11753
1634.1	11704
1634.9	11930
1635.7	11880
1636.6	11909
1637.4	11784
1638.2	11871
1639	11737
1639.8	11817
1640.6	11875
1641.5	11868
1642.3	11894
1643.1	11859
1643.9	11746
1644.7	11681
1645.6	11823
1646.4	12204
1647.2	11769
1648	11804
1648.8	11897
1649.6	11838
1650.5	11896
1651.3	11948
1652.1	11896
1652.9	11815
1653.7	11712
1654.6	11716
1655.4	11749
1656.2	11774
1657	11840
1657.8	11875
1658.6	11870
1659.5	11939
1660.3	11904
1661.1	11681
1661.9	11675
1662.7	11906
1663.6	11872
1664.4	11763
1665.2	11846
1666	11757
1666.8	11883
1667.6	11714
1668.5	11788
1669.3	11881
1670.1	11831
1670.9	11832
1671.7	11925
1672.6	11884
1673.4	11729
1674.2	11889
1675	11943
1675.8	11846
1676.6	11717
1677.5	11845
1678.3	11855
1679.1	11838
1679.9	11788
1680.7	11906
1681.5	11762
1682.4	11736
1683.2	11811
1684	11909
1684.8	11819
1685.6	11732
1686.5	11818
1687.3	11903
1688.1	11870
1688.9	11797
1689.7	11863
1690.5	11940
1691.4	11897
1692.2	11927
1693	11959
1693.8	12013
1694.6	12134
1695.5	11780
1696.3	11900
1697.1	11871
1697.9	11762
1698.7	11837
1699.5	11932
1700.4	11837
1701.2	11798
1702	11814
1702.8	11849
1703.6	11893
1704.5	11790
1705.3	11785
1706.1	11793
1706.9	11870
1707.7	11829
1708.5	11760
1709.4	11897
1710.2	11702
1711	11720
1711.8	11887
1712.6	11678
1713.5	11583
1714.3	11750
1715.1	11947
1715.9	11690
1716.7	11746
1717.5	11796
1718.4	11758
1719.2	11883
1720	11860
1720.8	11751
1721.6	11798
1722.4	11781
1723.3	11918
1724.1	11867
1724.9	11756
1725.7	11920
1726.5	11827
1727.4	11653
1728.2	11827
1729	11814
1729.8	11786
1730.6	11818
1731.4	11717
1732.3	11861
1733.1	11811
1733.9	11680
1734.7	11718
1735.5	11733
1736.4	11718
1737.2	11652
1738	11634
1738.8	11805
1739.6	11793
1740.4	11741
1741.3	11937
1742.1	11735
1742.9	11687
1743.7	11582
1744.5	11619
1745.4	11733
1746.2	11685
1747	11798
1747.8	11664
1748.6	11958
1749.4	11771
1750.3	11583
1751.1	11745
1751.9	11886
1752.7	11781
1753.5	11820
1754.4	11882
1755.2	11861
1756	11862
1756.8	11820
1757.6	11781
1758.4	11815
1759.3	11818
1760.1	11846
1760.9	11794
1761.7	11791
1762.5	11726
1763.4	11838
1764.2	11696
1765	11770
1765.8	11735
1766.6	11895
1767.4	11887
1768.3	11777
1769.1	11845
1769.9	11834
1770.7	11676
1771.5	11833
1772.3	11760
1773.2	11602
1774	11548
1774.8	11596
1775.6	11569
1776.4	11739
1777.3	11909
1778.1	11788
1778.9	11786
1779.7	11818
1780.5	11725
1781.3	11724
1782.2	11706
1783	11640
1783.8	11693
1784.6	11662
1785.4	11734
1786.3	11806
1787.1	11899
1787.9	11639
1788.7	11657
1789.5	11676
1790.3	11582
1791.2	11604
1792	11835
1792.8	11726
1793.6	11580
1794.4	11678
1795.3	11660
1796.1	11703
1796.9	11856
1797.7	11822
1798.5	11683
1799.3	11623
1800.2	11591
1801	11702
1801.8	11823
1802.6	11684
1803.4	11657
1804.3	11674
1805.1	11551
1805.9	11696
1806.7	11585
1807.5	11751
1808.3	11670
1809.2	11750
1810	11428
1810.8	11650
1811.6	11864
1812.4	11702
1813.2	11787
1814.1	11769
1814.9	11596
1815.7	11729
1816.5	11601
1817.3	11635
1818.2	11760
1819	11806
1819.8	11718
1820.6	11616
1821.4	11592
1822.2	11545
1823.1	11485
1823.9	11678
1824.7	11785
1825.5	11687
1826.3	11610
1827.2	11638
1828	11770
1828.8	11884
1829.6	11904
1830.4	11694
1831.2	11535
1832.1	11530
1832.9	11756
1833.7	11846
1834.5	11731
1835.3	11743
1836.2	11790
1837	11561
1837.8	11659
1838.6	11627
1839.4	11610
1840.2	11389
1841.1	11642
1841.9	11633
1842.7	11617
1843.5	11493
1844.3	11622
1845.2	11560
1846	11728
1846.8	11719
1847.6	11765
1848.4	11737
1849.2	11520
1850.1	11450
1850.9	11513
1851.7	11616
1852.5	11507
1853.3	11569
1854.1	11672
1855	11693
1855.8	11686
1856.6	11602
1857.4	11625
1858.2	11614
1859.1	11534
1859.9	11614
1860.7	11617
1861.5	11629
1862.3	11683
1863.1	11610
1864	11597
1864.8	11586
1865.6	11439
1866.4	11512
1867.2	11516
1868.1	11498
1868.9	11592
1869.7	11604
1870.5	11629
1871.3	11564
1872.1	11843
1873	11607
1873.8	11498
1874.6	11696
1875.4	11484
1876.2	11369
1877.1	11529
1877.9	11610
1878.7	11677
1879.5	11525
1880.3	11618
1881.1	11512
1882	11598
1882.8	11452
1883.6	11581
1884.4	11655
1885.2	11579
1886.1	11484
1886.9	11616
1887.7	11741
1888.5	11641
1889.3	11513
1890.1	11607
1891	11643
1891.8	11468
1892.6	11490
1893.4	11479
1894.2	11506
1895.1	11566
1895.9	11621
1896.7	11558
1897.5	11536
1898.3	11575
1899.1	11440
1900	11418
1900.8	11470
1901.6	11419
1902.4	11328
1903.2	11463
1904	11588
1904.9	11561
1905.7	11504
1906.5	11381
1907.3	11380
1908.1	11516
1909	11510
1909.8	11570
1910.6	11624
1911.4	11528
1912.2	11573
1913	11461
1913.9	11438
1914.7	11531
1915.5	11440
1916.3	11469
1917.1	11393
1918	11540
1918.8	11364
1919.6	11448
1920.4	11416
1921.2	11533
1922	11382
1922.9	11452
1923.7	11741
1924.5	11454
1925.3	11256
1926.1	11237
1927	11459
1927.8	11507
1928.6	11343
1929.4	11379
1930.2	11420
1931	11458
1931.9	11151
1932.7	11220
1933.5	11287
1934.3	11306
1935.1	11456
1936	11327
1936.8	11326
1937.6	11246
1938.4	11474
1939.2	11355
1940	11164
1940.9	11207
1941.7	11372
1942.5	11290
1943.3	11339
1944.1	11398
1944.9	11383
1945.8	11390
1946.6	11391
1947.4	11309
1948.2	11299
1949	11416
1949.9	11313
1950.7	11133
1951.5	11309
1952.3	11248
1953.1	11178
1953.9	11357
1954.8	11337
1955.6	11480
1956.4	11356
1957.2	11341
1958	11289
1958.9	11365
1959.7	11367
1960.5	11262
1961.3	11341
1962.1	11356
1962.9	11215
1963.8	11291
1964.6	11327
1965.4	11299
1966.2	11206
1967	11188
1967.9	11336
1968.7	11404
1969.5	11446
1970.3	11379
1971.1	11284
1971.9	11368
1972.8	11249
1973.6	11214
1974.4	11179
1975.2	11149
1976	11121
1976.9	11138
1977.7	11168
1978.5	11201
1979.3	11211
1980.1	11158
1980.9	11233
1981.8	11268
1982.6	11155
1983.4	11085
1984.2	11170
1985	11236
1985.8	11164
1986.7	11131
1987.5	11326
1988.3	11315
1989.1	11140
1989.9	11152
1990.8	11187
1991.6	11215
1992.4	11209
1993.2	11175
1994	11234
1994.8	11229
1995.7	11249
1996.5	11193
1997.3	11190
1998.1	11278
1998.9	11156
1999.8	11074
2000.6	11089
2001.4	11179
2002.2	11083
2003	10981
2003.8	11160
2004.7	11219
2005.5	11117
2006.3	11027
2007.1	11090
2007.9	11067
2008.8	11154
2009.6	11341
2010.4	11311
2011.2	11126
2012	11114
2012.8	11039
2013.7	10956
2014.5	11037
2015.3	10988
2016.1	10967
2016.9	11077
2017.8	10941
2018.6	10969
2019.4	11142
2020.2	10964
2021	10982
2021.8	11196
2022.7	11177
2023.5	11155
2024.3	11002
2025.1	10953
2025.9	11027
2026.7	10903
2027.6	10892
2028.4	10912
2029.2	10885
2030	10923
2030.8	11041
2031.7	10955
2032.5	10874
2033.3	10992
2034.1	10914
2034.9	10928
2035.7	10905
2036.6	10986
2037.4	10877
2038.2	10875
2039	10956
2039.8	10758
2040.7	10938
2041.5	10885
2042.3	10772
2043.1	10954
2043.9	10724
2044.7	11002
2045.6	10889
2046.4	10986
2047.2	11182
2048	11126
2048.8	11148
2049.7	11006
2050.5	11039
2051.3	10958
2052.1	10890
2052.9	10982
2053.7	10856
2054.6	10920
2055.4	10905
2056.2	10887
2057	10671
2057.8	10783
2058.7	10804
2059.5	10828
2060.3	10916
2061.1	10947
2061.9	11074
2062.7	10886
2063.6	11008
2064.4	11074
2065.2	10983
2066	10853
2066.8	10958
2067.7	10984
2068.5	10846
2069.3	10852
2070.1	10831
2070.9	10847
2071.7	10880
2072.6	10819
2073.4	10751
2074.2	10740
2075	10950
2075.8	10777
2076.7	10764
2077.5	10704
2078.3	10679
2079.1	10765
2079.9	10954
2080.7	10802
2081.6	10589
2082.4	10800
2083.2	10766
2084	10614
2084.8	10762
2085.6	10713
2086.5	10608
2087.3	10614
2088.1	10556
2088.9	10677
2089.7	10579
2090.6	10627
2091.4	10707
2092.2	10684
2093	10581
2093.8	10690
2094.6	10748
2095.5	10841
2096.3	10532
2097.1	10607
2097.9	10734
2098.7	10767
2099.6	10537
2100.4	10728
2101.2	10367
2102	10522
2102.8	10602
2103.6	10720
2104.5	10710
2105.3	10662
2106.1	10457
2106.9	10451
2107.7	10686
2108.6	10635
2109.4	10435
2110.2	10547
2111	10705
2111.8	10459
2112.6	10484
2113.5	10772
2114.3	10638
2115.1	10531
2115.9	10545
2116.7	10514
2117.6	10410
2118.4	10438
2119.2	10335
2120	10564
2120.8	10455
2121.6	10459
2122.5	10364
2123.3	10449
2124.1	10467
2124.9	10582
2125.7	10493
2126.5	10393
2127.4	10420
2128.2	10542
2129	10479
2129.8	10349
2130.6	10337
2131.5	10275
2132.3	10385
2133.1	10494
2133.9	10580
2134.7	10459
2135.5	10443
2136.4	10565
2137.2	10338
2138	10434
2138.8	10177
2139.6	10470
2140.5	10302
2141.3	10340
2142.1	10229
2142.9	10356
2143.7	10269
2144.5	10247
2145.4	10333
2146.2	10387
2147	10180
2147.8	10327
2148.6	10364
2149.5	10441
2150.3	10499
2151.1	10512
2151.9	10329
2152.7	10129
2153.5	10281
2154.4	10367
2155.2	10179
2156	10162
2156.8	10407
2157.6	10418
2158.5	10285
2159.3	10251
2160.1	10365
2160.9	10361
2161.7	10164
2162.5	10240
2163.4	10300
2164.2	10154
2165	10321
2165.8	10205
2166.6	10116
2167.4	10502
2168.3	10008
2169.1	10232
2169.9	10241
2170.7	10068
2171.5	10205
2172.4	10222
2173.2	10224
2174	10101
2174.8	10063
2175.6	10054
2176.4	10050
2177.3	10102
2178.1	10122
2178.9	10088
2179.7	10180
2180.5	10206
2181.4	10157
2182.2	10125
2183	9936.4
2183.8	10153
2184.6	10173
2185.4	10150
2186.3	10245
2187.1	10044
2187.9	10256
2188.7	9955.6
2189.5	10092
2190.4	10108
2191.2	9870.5
2192	9976.7
2192.8	9923.3
2193.6	10037
2194.4	9908.8
2195.3	10056
2196.1	9840.8
2196.9	9939.7
2197.7	10103
2198.5	9863.4
2199.4	10028
2200.2	10101
2201	10150
2201.8	10042
2202.6	10039
2203.4	10012
2204.3	10065
2205.1	9804
2205.9	10113
2206.7	10028
2207.5	9925.5
2208.3	10048
2209.2	9977.4
2210	9912.1
2210.8	9945
2211.6	9849
2212.4	9881.7
2213.3	9953.8
2214.1	9839.6
2214.9	9870.9
2215.7	9877.3
2216.5	9979.8
2217.3	9991.9
2218.2	9766.8
2219	9856.4
2219.8	9841.8
2220.6	9860.4
2221.4	9884.7
2222.3	9782.4
2223.1	9971.1
2223.9	10031
2224.7	9871.3
2225.5	9957.3
2226.3	10025
2227.2	9783.4
2228	9896.2
2228.8	9835
2229.6	9836.5
2230.4	9878.5
2231.3	9977.5
2232.1	9896.1
2232.9	9918.7
2233.7	9935.9
2234.5	9691
2235.3	9673.1
2236.2	9577.7
2237	9817.7
2237.8	9735.4
2238.6	9745.4
2239.4	9778.7
2240.3	9747.8
2241.1	9690.6
2241.9	9703.2
2242.7	9759.9
2243.5	9787.1
2244.3	9788.1
2245.2	9692.7
2246	9617.1
2246.8	9514.7
2247.6	9696.2
2248.4	9660.4
2249.3	9557.4
2250.1	9687.4
2250.9	9587.4
2251.7	9535.6
2252.5	9565.5
2253.3	9447.6
2254.2	9600.7
2255	9671
2255.8	9553.8
2256.6	9535.1
2257.4	9531.6
2258.2	9592.4
2259.1	9623.6
2259.9	9553.1
2260.7	9690.1
2261.5	9489.2
2262.3	9512.7
2263.2	9534.6
2264	9552.8
2264.8	9346.9
2265.6	9398.8
2266.4	9591.1
2267.2	9623.6
2268.1	9544.6
2268.9	9457.4
2269.7	9478.7
2270.5	9533.7
2271.3	9362.1
2272.2	9433.2
2273	9502.8
2273.8	9422.6
2274.6	9495.4
2275.4	9450.6
2276.2	9456.8
2277.1	9362
2277.9	9589.9
2278.7	9526.6
2279.5	9291.1
2280.3	9583.3
2281.2	9302.5
2282	9525.4
2282.8	9578.3
2283.6	9409.2
2284.4	9461.6
2285.2	9429.2
2286.1	9442
2286.9	9420
2287.7	9395.2
2288.5	9354.1
2289.3	9401.6
2290.2	9293.5
2291	9507.2
2291.8	9386.4
2292.6	9444.4
2293.4	9337.2
2294.2	9236.3
2295.1	9293.2
2295.9	9166.9
2296.7	9387.9
2297.5	9279.7
2298.3	9354
2299.1	9374.6
2300	9164.5
2300.8	9233.5
2301.6	9288.1
2302.4	9271.3
2303.2	9231.1
2304.1	9212.7
2304.9	9195.8
2305.7	9139.2
2306.5	9061.6
2307.3	9321.8
2308.1	9431.8
2309	9133.3
2309.8	9327.4
2310.6	9293.3
2311.4	9251
2312.2	9261.1
2313.1	9143.9
2313.9	9090.3
2314.7	9235
2315.5	9168.2
2316.3	9145.9
2317.1	9217.4
2318	9046.6
2318.8	9287
2319.6	9315.9
2320.4	9265.2
2321.2	9169.6
2322.1	8930.2
2322.9	9153.5
2323.7	9133.3
2324.5	9032.7
2325.3	9112.9
2326.1	9132
2327	9199.7
2327.8	9143
2328.6	9139.2
2329.4	9162.7
2330.2	9030.9
2331.1	9236.4
2331.9	9283.9
2332.7	9004.7
2333.5	9105.8
2334.3	9026.2
2335.1	9202
2336	8992.6
2336.8	9083.9
2337.6	9151.4
2338.4	8993.1
2339.2	8945.6
2340	8936.5
2340.9	9050.3
2341.7	9026.2
2342.5	8922.2
2343.3	8937.4
2344.1	9017.7
2345	8907
2345.8	9087.4
2346.6	8933.1
2347.4	9106.3
2348.2	8862.6
2349	8977.9
2349.9	8891.7
2350.7	9042.5
2351.5	8959.7
2352.3	8938.7
2353.1	8957.2
2354	8864
2354.8	8921
2355.6	8995.2
2356.4	9069.3
2357.2	8853.3
2358	8995.4
2358.9	9050
2359.7	8989.7
2360.5	8742.5
2361.3	8867.3
2362.1	8808.7
2363	8710.5
2363.8	8796.2
2364.6	8817.9
2365.4	8990.3
2366.2	8746.3
2367	8825
2367.9	8710
2368.7	8660.2
2369.5	8750.4
2370.3	8825.5
2371.1	8808.6
2372	8720.2
2372.8	8887.7
2373.6	8696.8
2374.4	8728.6
2375.2	8641.3
2376	8857.1
2376.9	8878.6
2377.7	8881.2
2378.5	8747.7
2379.3	8671.7
2380.1	8621
2380.9	8760.8
2381.8	8755.1
2382.6	8710.8
2383.4	8833.7
2384.2	8794.4
2385	8702.1
2385.9	8756.1
2386.7	8805.8
2387.5	8708.6
2388.3	8707.8
2389.1	8728.4
2389.9	8551.7
2390.8	8594.3
2391.6	8695.4
2392.4	8576.6
2393.2	8539.6
2394	8573.6
2394.9	8781.6
2395.7	8554.2
2396.5	8542.4
2397.3	8538.4
2398.1	8597.6
2398.9	8665.3
2399.8	8635.2
2400.6	8520.3
2401.4	8766.7
2402.2	8502.9
2403	8520.4
2403.9	8622.1
2404.7	8513.1
2405.5	8496.6
2406.3	8620.5
2407.1	8534.6
2407.9	8639.8
2408.8	8556.8
2409.6	8611.6
2410.4	8432.3
2411.2	8667.1
2412	8521.1
2412.9	8300.3
2413.7	8428.8
2414.5	8542
2415.3	8540.3
2416.1	8447.5
2416.9	8522.1
2417.8	8510.8
2418.6	8438.2
2419.4	8524.2
2420.2	8440.6
2421	8384.4
2421.9	8343.8
2422.7	8347.4
2423.5	8421.5
2424.3	8513.7
2425.1	8361.1
2425.9	8264.1
2426.8	8301.2
2427.6	8295.6
2428.4	8247.5
2429.2	8338.5
2430	8461
2430.8	8270.4
2431.7	8337.5
2432.5	8269.4
2433.3	8195.3
2434.1	8300.3
2434.9	8274.3
2435.8	8275.7
2436.6	8284.7
2437.4	8246
2438.2	8331.4
2439	8281.6
2439.8	8198.9
2440.7	8233.8
2441.5	8414.7
2442.3	8169.1
2443.1	8094.4
2443.9	8081.6
2444.8	8209.1
2445.6	8171.1
2446.4	8232.2
2447.2	8055.7
2448	8116.8
2448.8	7992.6
2449.7	8307.6
2450.5	8050.2
2451.3	8106.1
2452.1	8206.7
2452.9	8326.6
2453.8	8142.3
2454.6	8151.7
2455.4	8140.1
2456.2	8139.7
2457	8146.8
2457.8	8237.5
2458.7	8228.9
2459.5	8094.6
2460.3	8140.8
2461.1	8028
2461.9	7912.6
2462.8	8056.2
2463.6	8100.4
2464.4	8054.2
2465.2	7946.9
2466	8069.9
2466.8	8078.3
2467.7	8126.8
2468.5	8027.2
2469.3	8159.3
2470.1	7963.6
2470.9	8027.6
2471.7	8024.2
2472.6	8071.8
2473.4	8065.7
2474.2	8069.2
2475	7970.7
2475.8	8122.2
2476.7	7992.8
2477.5	7942
2478.3	7803
2479.1	7846.8
2479.9	8057.4
2480.7	7944.6
2481.6	7914.9
2482.4	7865.5
2483.2	7807
2484	7836.7
2484.8	8001.4
2485.7	7960.1
2486.5	8032.3
2487.3	7801.9
2488.1	7795.8
2488.9	7950.3
2489.7	7964.9
2490.6	7848.3
2491.4	7881.9
2492.2	7915.7
2493	7988.1
2493.8	7608.4
2494.7	7818
2495.5	7733.7
2496.3	7876
2497.1	7963.5
2497.9	7838.1
2498.7	7841.7
2499.6	7792.5
2500.4	7718.5
2501.2	7761.7
2502	7714.7
2502.8	7835.1
2503.7	7826.8
2504.5	7761.6
2505.3	7772.7
2506.1	7799.5
2506.9	7726.2
2507.7	7848.6
2508.6	7730.3
2509.4	7804.8
2510.2	7881.6
2511	7831.3
2511.8	7797.2
2512.6	7765.8
2513.5	7718.9
2514.3	7751.3
2515.1	7744.2
2515.9	7706.7
2516.7	7729.8
2517.6	7696.5
2518.4	7686.6
2519.2	7732.8
2520	7613.3
2520.8	7665.1
2521.6	7704.7
2522.5	7692.1
2523.3	7595.8
2524.1	7561.8
2524.9	7631.9
2525.7	7637.3
2526.6	7706
2527.4	7523.9
2528.2	7635.5
2529	7758.9
2529.8	7556.6
2530.6	7499.5
2531.5	7693.2
2532.3	7663.2
2533.1	7680.3
2533.9	7585.3
2534.7	7768.2
2535.6	7668.2
2536.4	7628.3
2537.2	7598.9
2538	7489.5
2538.8	7522.9
2539.6	7523.4
2540.5	7560.3
2541.3	7654.2
2542.1	7288.8
2542.9	7618
2543.7	7646.2
2544.6	7513.6
2545.4	7414.7
2546.2	7378.8
2547	7496.6
2547.8	7532.9
2548.6	7470.1
2549.5	7454.5
2550.3	7479.2
2551.1	7395.6
2551.9	7358.6
2552.7	7317
2553.5	7383.7
2554.4	7429.6
2555.2	7550.3
2556	7300.2
2556.8	7220.7
2557.6	7323.4
2558.5	7428.9
2559.3	7507.4
2560.1	7432
2560.9	7460.6
2561.7	7462.8
2562.5	7482.7
2563.4	7498.6
2564.2	7368.6
2565	7343.4
2565.8	7332.8
2566.6	7306.9
2567.5	7334.4
2568.3	7377.8
2569.1	7410.1
2569.9	7119.2
2570.7	7264.1
2571.5	7206.3
2572.4	7353.3
2573.2	7294
2574	7299
2574.8	7329.2
2575.6	7372.4
2576.5	7327.7
2577.3	7225.9
2578.1	7396.1
2578.9	7329.7
2579.7	7197.8
2580.5	7209.8
2581.4	7134.2
2582.2	7119.3
2583	7082.4
2583.8	7144.7
2584.6	7087.6
2585.5	7248.4
2586.3	7210.7
2587.1	7227.4
2587.9	7151.6
2588.7	7207.5
2589.5	7329.2
2590.4	7215.3
2591.2	7205.8
2592	7235.4
2592.8	7319.8
2593.6	7179.8
2594.5	7208.5
2595.3	7174.7
2596.1	7127.7
2596.9	7051
2597.7	7178.4
2598.5	7065.5
2599.4	7192.8
2600.2	7224.2
2601	7216.4
2601.8	7098.8
2602.6	7138.7
2603.4	7160.2
2604.3	7025.5
2605.1	6910.2
2605.9	7203.5
2606.7	7219.8
2607.5	7081.6
2608.4	6996.5
2609.2	6955.5
2610	7042.1
2610.8	7084.2
2611.6	7212.5
2612.4	7008.2
2613.3	7131.1
2614.1	7071.6
2614.9	7022.8
2615.7	7009.7
2616.5	6964.4
2617.4	6986.6
2618.2	7031.9
2619	7096.2
2619.8	6899.3
2620.6	6980.6
2621.4	7083.2
2622.3	7125.1
2623.1	7099.8
2623.9	7027.6
2624.7	6782.6
2625.5	7036.7
2626.4	7062.3
2627.2	6889.5
2628	6833.9
2628.8	6881.3
2629.6	6931.3
2630.4	6826.9
2631.3	6899.3
2632.1	7102
2632.9	6988.5
2633.7	6903.2
2634.5	6943.1
2635.4	6982.6
2636.2	6922.9
2637	6922.9
2637.8	6863.5
2638.6	6771.1
2639.4	6853.6
2640.3	6828.7
2641.1	6883.8
2641.9	6841.7
2642.7	6830.3
2643.5	6859.4
2644.3	6971.8
2645.2	7005.7
2646	6968.9
2646.8	6818.4
2647.6	6805
2648.4	6736.4
2649.3	6746.6
2650.1	6628
2650.9	6879.1
2651.7	6764.4
2652.5	6746.5
2653.3	6735
2654.2	6668
2655	6789.8
2655.8	6816.3
2656.6	6595.9
2657.4	6730.3
2658.3	6587.3
2659.1	6678.6
2659.9	6816.6
2660.7	6726.4
2661.5	6655.3
2662.3	6609.2
2663.2	6669.4
2664	6839.3
2664.8	6641.2
2665.6	6623.2
2666.4	6722.6
2667.3	6796.2
2668.1	6641.6
2668.9	6690.2
2669.7	6692.6
2670.5	6763.6
2671.3	6678.4
2672.2	6667.2
2673	6715.8
2673.8	6620.6
2674.6	6715.8
2675.4	6728.9
2676.3	6771.1
2677.1	6649.1
2677.9	6632
2678.7	6681.1
2679.5	6555.8
2680.3	6503.3
2681.2	6614.6
2682	6629.3
2682.8	6560.5
2683.6	6406.5
2684.4	6553.4
2685.2	6532.9
2686.1	6584.3
2686.9	6560.3
2687.7	6582.1
2688.5	6536.9
2689.3	6559.7
2690.2	6462.4
2691	6540.7
2691.8	6463.5
2692.6	6626.2
2693.4	6472.7
2694.2	6495.6
2695.1	6596.8
2695.9	6551.3
2696.7	6432.6
2697.5	6449
2698.3	6413.3
2699.2	6519.7
2700	6477.4
2700.8	6411.1
2701.6	6358.7
2702.4	6363.6
2703.2	6516
2704.1	6340.8
2704.9	6433.9
2705.7	6416.6
2706.5	6496.4
2707.3	6536.4
2708.2	6487.2
2709	6375.4
2709.8	6523.7
2710.6	6455.7
2711.4	6496.9
2712.2	6428.9
2713.1	6411.1
2713.9	6461.8
2714.7	6509.8
2715.5	6410.8
2716.3	6354.3
2717.2	6407.6
2718	6381.5
2718.8	6444.1
2719.6	6337.9
2720.4	6414.5
2721.2	6413.3
2722.1	6323.7
2722.9	6344.6
2723.7	6441.5
2724.5	6422.6
2725.3	6312.5
2726.1	6311.3
2727	6378
2727.8	6299.3
2728.6	6339.5
2729.4	6233
2730.2	6186.4
2731.1	6303.5
2731.9	6335.8
2732.7	6309.3
2733.5	6353.3
2734.3	6292.1
2735.1	6335.3
2736	6250.6
2736.8	6255.4
2737.6	6261.8
2738.4	6368.2
2739.2	6330.2
2740.1	6137.8
2740.9	6118.3
2741.7	6122.3
2742.5	6443.7
2743.3	6316.6
2744.1	6164.5
2745	6142.5
2745.8	6281.9
2746.6	6159.4
2747.4	6260.1
2748.2	6236.8
2749.1	6322.2
2749.9	6228.2
2750.7	6232.2
2751.5	6202.4
2752.3	6135.2
2753.1	6110.5
2754	6115.6
2754.8	6163.7
2755.6	6158.2
2756.4	6099.7
2757.2	6124.7
2758.1	6105.3
2758.9	6053.4
2759.7	6100.4
2760.5	6203.3
2761.3	6056.8
2762.1	6216.8
2763	6084.6
2763.8	6041.6
2764.6	6142.1
2765.4	6060.8
2766.2	6016.3
2767.1	6053.5
2767.9	6019.6
2768.7	5946.1
2769.5	6081.4
2770.3	6109.1
2771.1	6020
2772	6020.8
2772.8	6108.1
2773.6	6073.9
2774.4	6028.4
2775.2	6091.6
2776	6084
2776.9	6023.8
2777.7	6004.9
2778.5	5956.1
2779.3	5969.2
2780.1	5894
2781	5983.7
2781.8	5990.1
2782.6	5964.9
2783.4	5911.1
2784.2	5957.3
2785	6079.5
2785.9	5989
2786.7	5970.5
2787.5	6059
2788.3	5777.4
2789.1	5915.9
2790	5951.3
2790.8	5883.5
2791.6	5812.2
2792.4	5989.3
2793.2	5862.1
2794	5993.9
2794.9	5820.9
2795.7	5801.7
2796.5	5748.6
2797.3	5824.3
2798.1	5916.2
2799	5931.3
2799.8	5780.5
2800.6	5776.6
2801.4	5792.7
2802.2	5994.7
2803	5664.5
2803.9	5942.4
2804.7	5788.9
2805.5	5696.7
2806.3	5612.8
2807.1	5789.8
2808	5749.6
2808.8	5692.8
2809.6	5825.7
2810.4	5814.2
2811.2	5865.1
2812	5797.8
2812.9	5875.9
2813.7	5660.1
2814.5	5841.3
2815.3	5972.2
2816.1	5782.1
2816.9	5744.8
2817.8	5592
2818.6	5796.1
2819.4	5797
2820.2	5742
2821	5866.6
2821.9	5739.6
2822.7	5733.4
2823.5	5728.9
2824.3	5748
2825.1	5692.8
2825.9	5761.6
2826.8	5671
2827.6	5640.8
2828.4	5626.3
2829.2	5714.8
2830	5668.5
2830.9	5645.5
2831.7	5679.3
2832.5	5715.1
2833.3	5690.9
2834.1	5638.3
2834.9	5578.9
2835.8	5626.3
2836.6	5650.8
2837.4	5737.5
2838.2	5643.7
2839	5692.1
2839.9	5675.1
2840.7	5484.5
2841.5	5640.8
2842.3	5515.7
2843.1	5554.6
2843.9	5606
2844.8	5640.9
2845.6	5527.6
2846.4	5672.9
2847.2	5759.3
2848	5674.4
2848.9	5682.8
2849.7	5421.4
2850.5	5558.1
2851.3	5700.1
2852.1	5635.8
2852.9	5537.7
2853.8	5504.4
2854.6	5556.5
2855.4	5690.2
2856.2	5504.9
2857	5511.9
2857.8	5530.3
2858.7	5625
2859.5	5535.2
2860.3	5612.4
2861.1	5529.6
2861.9	5602.2
2862.8	5556.9
2863.6	5477.9
2864.4	5550.7
2865.2	5536.5
2866	5552.7
2866.8	5631.7
2867.7	5584.2
2868.5	5373.3
2869.3	5481.2
2870.1	5615.4
2870.9	5443.1
2871.8	5602.5
2872.6	5606.4
2873.4	5471
2874.2	5404.8
2875	5383.9
2875.8	5554.6
2876.7	5491.4
2877.5	5561.3
2878.3	5494.8
2879.1	5499.6
2879.9	5421.4
2880.8	5581.8
2881.6	5364
2882.4	5471.3
2883.2	5406.1
2884	5498.8
2884.8	5552.8
2885.7	5404
2886.5	5375.5
2887.3	5498.1
2888.1	5426.3
2888.9	5359.5
2889.8	5400.4
2890.6	5380.7
2891.4	5467.9
2892.2	5319.7
2893	5369.8
2893.8	5506.4
2894.7	5481.4
2895.5	5356.1
2896.3	5486.2
2897.1	5494.9
2897.9	5431.8
2898.8	5476.4
2899.6	5364.1
2900.4	5336.2
2901.2	5256.6
2902	5355.3
2902.8	5474
2903.7	5373.4
2904.5	5257.5
2905.3	5372.9
2906.1	5438
2906.9	5512.1
2907.7	5465.1
2908.6	5214.5
2909.4	5281.3
2910.2	5325
2911	5323.8
2911.8	5428
2912.7	5463.5
2913.5	5392
2914.3	5436.8
2915.1	5409
2915.9	5403.3
2916.7	5356.7
2917.6	5380.6
2918.4	5279.5
2919.2	5225.3
2920	5352.6
2920.8	5293.9
2921.7	5277.7
2922.5	5260
2923.3	5263.5
2924.1	5139.6
2924.9	5171.2
2925.7	5251.3
2926.6	5326.4
2927.4	5304
2928.2	5246.4
2929	5323.8
2929.8	5261.2
2930.7	5234.4
2931.5	5253.5
2932.3	5207.7
2933.1	5306.5
2933.9	5270.5
2934.7	5238.8
2935.6	5214.6
2936.4	5182
2937.2	5138.5
2938	5259.8
2938.8	5233.4
2939.7	5257.7
2940.5	5259.6
2941.3	5322
2942.1	5350.6
2942.9	5262.9
2943.7	5302.7
2944.6	5311.8
2945.4	5554.9
2946.2	5651.3
2947	5542.8
2947.8	5736.9
2948.6	5619.2
2949.5	5794
2950.3	5852.6
2951.1	5913.4
2951.9	5962.4
2952.7	5982.8
2953.6	5812.2
2954.4	5655.8
2955.2	5537.9
2956	5436.7
2956.8	5580.1
2957.6	5488.4
2958.5	5418
2959.3	5352.5
2960.1	5296.2
2960.9	5229.6
2961.7	5113.3
2962.6	5105.9
2963.4	5170.9
2964.2	5095.1
2965	5131.8
2965.8	4975.6
2966.6	5002.6
2967.5	5143.4
2968.3	5011
2969.1	4963.2
2969.9	5122.4
2970.7	4991.8
2971.6	5136.5
2972.4	5172.4
2973.2	4955
2974	4982.7
2974.8	5050
2975.6	4997.1
2976.5	5051.8
2977.3	5023
2978.1	4897.2
2978.9	4975.9
2979.7	4941.4
2980.6	5011.3
2981.4	4958.4
2982.2	4979
2983	5079.1
2983.8	4871.1
2984.6	4886.8
2985.5	4984.4
2986.3	4874.8
2987.1	4894.5
2987.9	4771.6
2988.7	4843.5
2989.5	4899.7
2990.4	4858.4
2991.2	4936.1
2992	4991.8
2992.8	4951.7
2993.6	5000.4
2994.5	4906.8
2995.3	5049.9
2996.1	4912.1
2996.9	4887.9
2997.7	5001.8
2998.5	5131.7
2999.4	5138.7
3000.2	5175.4
3001	5292.3
3001.8	5241.3
3002.6	5352.2
3003.5	5289.6
3004.3	5521.3
3005.1	5460.4
3005.9	5315.8
3006.7	5392.6
3007.5	5272.9
3008.4	5206
3009.2	5163.3
3010	5045.5
3010.8	5123
3011.6	4935.8
3012.5	4861.5
3013.3	4898.4
3014.1	4818.6
3014.9	4884.2
3015.7	4840.4
3016.5	4887.7
3017.4	4909
3018.2	4871.8
3019	4868.8
3019.8	4788.8
3020.6	4748.5
3021.5	4674.4
3022.3	4693.2
3023.1	4635.8
3023.9	4691.5
3024.7	4767.3
3025.5	4596.6
3026.4	4742.1
3027.2	4648.3
3028	4732.9
3028.8	4665.7
3029.6	4676
3030.4	4637.1
3031.3	4738
3032.1	4667.3
3032.9	4507.1
3033.7	4642.7
3034.5	4686.7
3035.4	4470.5
3036.2	4481.5
3037	4731.4
3037.8	4528.3
3038.6	4610.4
3039.4	4527.5
3040.3	4528.6
3041.1	4568.7
3041.9	4569.8
3042.7	4453.8
3043.5	4650.3
3044.4	4501.5
3045.2	4585.2
3046	4540.7
3046.8	4481.4
3047.6	4556
3048.4	4631
3049.3	4535.3
3050.1	4607
3050.9	4612.1
3051.7	4547.3
3052.5	4476.3
3053.4	4534.1
3054.2	4645
3055	4518.5
3055.8	4533.9
3056.6	4465.5
3057.4	4496.9
3058.3	4639.4
3059.1	4589.2
3059.9	4484.9
3060.7	4506.2
3061.5	4483.6
3062.4	4605.2
3063.2	4598.6
3064	4443.5
3064.8	4677.7
3065.6	4597.8
3066.4	4564.2
3067.3	4672.2
3068.1	4849.2
3068.9	4528.9
3069.7	4689.8
3070.5	4714.3
3071.4	4797.5
3072.2	4607.2
3073	4674.3
3073.8	4561.3
3074.6	4532.5
3075.4	4828.2
3076.3	4748.4
3077.1	4688.8
3077.9	4824.7
3078.7	4908.1
3079.5	4929.1
3080.3	4776.5
3081.2	4629.6
3082	4650.4
3082.8	4642.3
3083.6	4510.9
3084.4	4457.4
3085.3	4382.2
3086.1	4439.9
3086.9	4446.4
3087.7	4261.4
3088.5	4249
3089.3	4381.6
3090.2	4416.2
3091	4363
3091.8	4352.5
3092.6	4536.5
3093.4	4340.5
3094.3	4289.8
3095.1	4431
3095.9	4527.9
3096.7	4440
3097.5	4501.1
3098.3	4409.7
3099.2	4453.8
3100	4163.3
3100.8	4248.4
3101.6	4362.9
3102.4	4236.6
3103.3	4316.3
3104.1	4361.8
3104.9	4253.1
3105.7	4331.1
3106.5	4440.5
3107.3	4306
3108.2	4331.1
3109	4348.9
3109.8	4200.1
3110.6	4274
3111.4	4222.6
3112.3	4249.8
3113.1	4195.1
3113.9	4292.9
3114.7	4261.2
3115.5	4292.4
3116.3	4304.1
3117.2	4286.7
3118	4152.8
3118.8	4144.6
3119.6	4135.1
3120.4	4154.8
3121.2	4127
3122.1	4042.4
3122.9	4121.9
3123.7	4159.1
3124.5	4284.3
3125.3	4135.8
3126.2	4241.6
3127	4205.3
3127.8	4207.1
3128.6	4197.2
3129.4	4178.7
3130.2	4250.1
3131.1	4035.3
3131.9	4118.9
3132.7	4304.3
3133.5	4107.7
3134.3	4168.9
3135.2	4165.9
3136	4165.1
3136.8	4210.2
3137.6	4117.2
3138.4	4149.1
3139.2	4236.3
3140.1	4181.7
3140.9	4255.3
3141.7	4150.2
3142.5	4288.5
3143.3	4148.6
3144.2	4103.3
3145	4176.2
3145.8	4228.9
3146.6	4120.5
3147.4	4167.9
3148.2	4222
3149.1	4067.7
3149.9	4203.6
3150.7	4084.1
3151.5	4054.6
3152.3	4093.6
3153.2	4090.9
3154	4053.9
3154.8	4041.9
3155.6	4064.1
3156.4	4051.7
3157.2	4113.1
3158.1	3982.5
3158.9	3993.4
3159.7	4043.9
3160.5	3986.5
3161.3	4032.8
3162.1	3929.4
3163	4030.4
3163.8	3950
3164.6	3973.8
3165.4	4041.3
3166.2	3954.3
3167.1	3964.5
3167.9	4018.9
3168.7	3978.5
3169.5	4039.6
3170.3	3909.5
3171.1	4126.2
3172	3943.8
3172.8	3931.2
3173.6	4037.7
3174.4	3958.2
3175.2	4001.6
3176.1	3902.7
3176.9	4000.3
3177.7	3897.8
3178.5	3989.9
3179.3	4034.8
3180.1	3862.6
3181	3968.1
3181.8	3977.9
3182.6	3978.7
3183.4	3893.7
3184.2	3805.1
3185.1	3926.4
3185.9	3940.9
3186.7	3932.2
3187.5	3994
3188.3	3913.8
3189.1	3965.8
3190	3864.5
3190.8	3895.6
3191.6	3920.5
3192.4	3899.9
3193.2	4008.7
3194.1	3850.5
3194.9	3856.5
3195.7	3840.7
3196.5	3876.8
3197.3	3905.9
3198.1	3916.5
3199	3868.9
3199.8	3876.5
3200.6	3768.4
3201.4	3699.5
3202.2	3865.4
3203	3830.8
3203.9	3898.2
3204.7	3822.7
3205.5	3873.5
3206.3	3837
3207.1	3742.4
3208	3929.1
3208.8	3805.4
3209.6	3846.7
3210.4	3901.2
3211.2	3833.8
3212	3875
3212.9	3848
3213.7	3732.5
3214.5	3783.3
3215.3	3832.2
3216.1	3822.5
3217	3814.2
3217.8	3744.6
3218.6	3797.5
3219.4	3782
3220.2	3743.8
3221	3774.5
3221.9	3772.2
3222.7	3846.1
3223.5	3757.9
3224.3	3870.7
3225.1	3698.3
3226	3746.3
3226.8	3765.5
3227.6	3713.4
3228.4	3772
3229.2	3626.5
3230	3764.8
3230.9	3736.1
3231.7	3837.1
3232.5	3720.4
3233.3	3795.3
3234.1	3685.5
3235	3759.5
3235.8	3627.1
3236.6	3735.4
3237.4	3691.6
3238.2	3602.1
3239	3705.9
3239.9	3740.9
3240.7	3801.6
3241.5	3734.3
3242.3	3747.8
3243.1	3690.7
3244	3665.7
3244.8	3661.5
3245.6	3771.4
3246.4	3739.7
3247.2	3740.3
3248	3695.4
3248.9	3604.8
3249.7	3708.9
3250.5	3726.1
3251.3	3764.8
3252.1	3607.8
3252.9	3742.6
3253.8	3628.6
3254.6	3662.3
3255.4	3614.9
3256.2	3673.3
3257	3597.9
3257.9	3626.6
3258.7	3621.9
3259.5	3632.8
3260.3	3678.9
3261.1	3688
3261.9	3613.5
3262.8	3748.6
3263.6	3693.6
3264.4	3640.1
3265.2	3588.8
3266	3614.7
3266.9	3539.8
3267.7	3572.8
3268.5	3566.9
3269.3	3414.9
3270.1	3694.9
3270.9	3657.5
3271.8	3614.5
3272.6	3540.6
3273.4	3539.7
3274.2	3507.4
3275	3562.4
3275.9	3510.4
3276.7	3462.3
3277.5	3538
3278.3	3331.8
3279.1	3593.2
3279.9	3589.3
3280.8	3591.2
3281.6	3366.5
3282.4	3512.1
3283.2	3599.1
3284	3493.9
3284.9	3509.7
3285.7	3416.7
3286.5	3575
3287.3	3559.3
3288.1	3472.1
3288.9	3433.5
3289.8	3500.8
3290.6	3606.7
3291.4	3562.4
3292.2	3512.2
3293	3530.4
3293.8	3510.4
3294.7	3550.4
3295.5	3621.3
3296.3	3506
3297.1	3465.5
3297.9	3542.6
3298.8	3501.2
3299.6	3530.5
3300.4	3482.4
3301.2	3565
3302	3527.9
3302.8	3503.6
3303.7	3470.2
3304.5	3356.3
3305.3	3468.9
3306.1	3377.2
3306.9	3517
3307.8	3486.3
3308.6	3285
3309.4	3435.2
3310.2	3483.7
3311	3498.7
3311.8	3418
3312.7	3421.3
3313.5	3459.3
3314.3	3362.1
3315.1	3421.4
3315.9	3454.2
3316.8	3464.8
3317.6	3474.4
3318.4	3375.9
3319.2	3367.8
3320	3493
3320.8	3391.4
3321.7	3458.3
3322.5	3486.6
3323.3	3365.5
3324.1	3334.3
3324.9	3427
3325.8	3323.7
3326.6	3400.7
3327.4	3424.9
3328.2	3367.1
3329	3310.4
3329.8	3424.9
3330.7	3343
3331.5	3362.7
3332.3	3419.2
3333.1	3434.4
3333.9	3392
3334.7	3382.9
3335.6	3333.4
3336.4	3398.4
3337.2	3399.1
3338	3358.7
3338.8	3245.7
3339.7	3264.6
3340.5	3476.2
3341.3	3329.6
3342.1	3321.7
3342.9	3327.8
3343.7	3356.8
3344.6	3314.3
3345.4	3374.9
3346.2	3266
3347	3203.2
3347.8	3206.8
3348.7	3248.7
3349.5	3147.1
3350.3	3346.2
3351.1	3410
3351.9	3244.9
3352.7	3264.7
3353.6	3415.4
3354.4	3277.1
3355.2	3299.2
3356	3305.3
3356.8	3309.7
3357.7	3200.7
3358.5	3204.3
3359.3	3351.1
3360.1	3299.3
3360.9	3316.6
3361.7	3366.1
3362.6	3290
3363.4	3252.3
3364.2	3362.4
3365	3300.3
3365.8	3228.9
3366.7	3304.9
3367.5	3260.1
3368.3	3239.8
3369.1	3232.5
3369.9	3276
3370.7	3146.5
3371.6	3202.9
3372.4	3169.5
3373.2	3270.3
3374	3290.5
3374.8	3252.2
3375.7	3293.8
3376.5	3304.1
3377.3	3157.1
3378.1	3237.1
3378.9	3114.6
3379.7	3296.5
3380.6	3235.7
3381.4	3172.2
3382.2	3143.9
3383	3101
3383.8	3214.9
3384.6	3194.4
3385.5	3173
3386.3	3213.1
3387.1	3061.5
3387.9	3161.7
3388.7	3090.1
3389.6	3104.7
3390.4	3283.7
3391.2	3155.1
3392	3114
3392.8	3165.4
3393.6	3145.1
3394.5	3180
3395.3	3136.7
3396.1	3209.1
3396.9	3268.8
3397.7	3225.7
3398.6	3154.6
3399.4	3209.8
3400.2	3129.4
3401	3072.4
3401.8	3153.8
3402.6	3084.1
3403.5	3218.6
3404.3	3144.7
3405.1	2929.6
3405.9	3046.9
3406.7	3164.4
3407.6	3099.3
3408.4	3083.4
3409.2	3082.5
3410	3109.6
3410.8	3035.9
3411.6	3035.2
3412.5	3040.7
3413.3	3055.8
3414.1	3126
3414.9	3125.3
3415.7	3134.8
3416.6	3146.2
3417.4	3014.8
3418.2	3153.4
3419	3062.7
3419.8	3202.1
3420.6	3064.9
3421.5	3106.8
3422.3	3034.9
3423.1	3039.6
3423.9	2992.4
3424.7	2988.3
3425.5	3174.9
3426.4	3036.7
3427.2	3063.7
3428	3083.4
3428.8	2986.2
3429.6	2932.5
3430.5	2973.9
3431.3	3082.5
3432.1	2960.5
3432.9	2984.7
3433.7	3041.7
3434.5	3003.7
3435.4	3006.1
3436.2	2973.9
3437	3090.4
3437.8	2997.8
3438.6	2999.3
3439.5	2932
3440.3	3024
3441.1	2988.4
3441.9	2937.1
3442.7	2933.3
3443.5	2969.4
3444.4	3000
3445.2	2904.1
3446	3046.6
3446.8	2947.7
3447.6	2940
3448.5	2958.7
3449.3	2878.2
3450.1	2967.2
3450.9	2975.9
3451.7	2913.3
3452.5	3040.6
3453.4	2949.9
3454.2	2944.3
3455	3065.2
3455.8	2934.6
3456.6	2828.6
3457.5	2918.9
3458.3	3024.2
3459.1	2973
3459.9	2858.1
3460.7	2908.7
3461.5	2969.4
3462.4	2975
3463.2	2999.6
3464	2882.4
3464.8	2869.9
3465.6	2839.7
3466.4	2916.6
3467.3	2810.6
3468.1	2818.3
3468.9	2882
3469.7	2811.2
3470.5	2953.4
3471.4	2943.5
3472.2	2830.3
3473	2910.2
3473.8	2841.1
3474.6	2836
3475.4	2845
3476.3	2907.3
3477.1	2856
3477.9	2860.8
3478.7	2760.9
3479.5	2929
3480.4	2882.8
3481.2	2833.3
3482	2852.5
3482.8	2887.1
3483.6	2808.4
3484.4	2946.5
3485.3	2884.4
3486.1	2944.6
3486.9	2886.8
3487.7	2885.2
3488.5	2841
3489.4	2886.4
3490.2	2808.4
3491	2843.9
3491.8	2792
3492.6	2823.3
3493.4	2814.9
3494.3	2897.5
3495.1	2902.3
3495.9	2749.4
3496.7	2824.4
3497.5	2743.4
3498.4	2796.5
3499.2	2874.7
3500	2823.5
3500.8	2831
