3502.103516	31595.820313
3501.383789	31463.853516
3500.663086	31094.113281
3499.943359	31380.646484
3499.222656	31392.863281
3498.502930	31158.667969
3497.782227	31628.955078
3497.061523	31301.119141
3496.340820	31368.839844
3495.620117	31474.689453
3494.899414	31462.599609
3494.178711	31183.542969
3493.457031	31278.966797
3492.735352	31623.912109
3492.014648	31483.582031
3491.292969	31772.941406
3490.571289	31663.808594
3489.849609	31371.130859
3489.127930	31397.162109
3488.405273	31350.468750
3487.683594	31445.732422
3486.960938	31516.734375
3486.239258	31425.050781
3485.516602	31707.111328
3484.793945	31964.859375
3484.071289	31305.833984
3483.348633	31560.103516
3482.625000	31340.533203
3481.902344	31812.535156
3481.178711	31755.468750
3480.456055	31370.064453
3479.732422	31572.275391
3479.008789	31587.833984
3478.285156	31496.291016
3477.561523	31401.324219
3476.837891	31548.134766
3476.113281	31356.503906
3475.389648	31534.343750
3474.665039	31625.828125
3473.940430	31610.292969
3473.215820	31687.929688
3472.491211	31720.689453
3471.766602	31777.582031
3471.041992	31920.683594
3470.317383	31925.785156
3469.591797	31930.894531
3468.867188	31935.998047
3468.141602	31941.107422
3467.416016	31946.216797
3466.690430	31951.326172
3465.964844	31904.750000
3465.239258	31706.626953
3464.512695	31980.388672
3463.787109	31723.781250
3463.060547	31332.986328
3462.334961	31782.224609
3461.608398	31694.414063
3460.881836	31641.042969
3460.155273	31556.722656
3459.428711	32057.226563
3458.701172	31869.681641
3457.974609	32332.140625
3457.247070	31962.380859
3456.520508	31991.517578
3455.792969	32006.894531
3455.065430	31647.675781
3454.337891	31666.539063
3453.610352	31496.443359
3452.881836	31903.466797
3452.154297	31884.498047
3451.426758	31917.041016
3450.698242	31997.636719
3449.969727	31855.082031
3449.241211	31709.142578
3448.512695	31947.580078
3447.784180	32144.767578
3447.055664	31885.644531
3446.326172	32058.767578
3445.597656	32194.109375
3444.868164	32178.541016
3444.138672	32303.533203
3443.410156	32068.585938
3442.680664	32022.199219
3441.950195	32284.210938
3441.220703	31785.583984
3440.491211	32235.941406
3439.760742	31888.173828
3439.031250	31787.062500
3438.300781	32309.091797
3437.570313	32149.750000
3436.839844	32072.601563
3436.109375	32296.611328
3435.378906	32267.363281
3434.647461	32022.607422
3433.916992	31883.960938
3433.185547	31622.250000
3432.455078	32123.097656
3431.723633	32353.708984
3430.992188	31866.455078
3430.260742	32179.050781
3429.529297	32050.759766
3428.796875	31939.591797
3428.065430	32347.662109
3427.333008	31823.236328
3426.600586	32391.679688
3425.869141	32280.523438
3425.136719	32316.187500
3424.404297	31986.648438
3423.670898	32080.357422
3422.938477	32259.332031
3422.206055	32216.511719
3421.472656	32224.865234
3420.739258	32355.982422
3420.006836	32698.455078
3419.273438	32048.769531
3418.540039	32346.865234
3417.805664	32287.027344
3417.072266	32339.650391
3416.338867	32491.054688
3415.604492	32707.128906
3414.870117	32562.123047
3414.136719	32321.820313
3413.402344	32381.199219
3412.667969	32158.021484
3411.933594	32370.564453
3411.198242	31899.046875
3410.463867	32308.896484
3409.728516	32153.910156
3408.994141	32519.365234
3408.258789	32367.792969
3407.523438	32396.478516
3406.788086	32244.974609
3406.052734	31916.771484
3405.316406	32387.312500
3404.581055	32422.767578
3403.845703	32390.261719
3403.109375	32497.035156
3402.373047	32321.884766
3401.636719	32506.732422
3400.900391	32161.880859
3400.164063	32560.546875
3399.427734	32507.681641
3398.690430	32424.291016
3397.954102	32592.000000
3397.216797	32427.205078
3396.479492	32282.814453
3395.743164	32681.062500
3395.004883	32187.439453
3394.267578	32151.638672
3393.530273	32187.029297
3392.792969	32144.460938
3392.054688	32654.216797
3391.317383	32221.978516
3390.579102	32467.343750
3389.840820	32441.687500
3389.102539	32392.333984
3388.364258	32491.964844
3387.625000	32263.208984
3386.886719	32494.822266
3386.148438	32272.906250
3385.409180	32460.455078
3384.669922	32400.992188
3383.930664	32446.400391
3383.191406	32427.539063
3382.452148	32787.375000
3381.712891	32109.240234
3380.973633	32790.117188
3380.233398	32412.976563
3379.493164	32282.625000
3378.753906	32598.265625
3378.013672	32261.875000
3377.273438	32226.175781
3376.533203	32572.056641
3375.791992	32110.914063
3375.051758	32338.552734
3374.311523	32350.109375
3373.570313	32213.183594
3372.829102	32501.419922
3372.087891	32367.884766
3371.346680	32376.052734
3370.605469	32508.990234
3369.864258	32668.859375
3369.123047	32289.283203
3368.380859	32503.062500
3367.638672	32238.220703
3366.897461	32819.214844
3366.155273	32537.558594
3365.413086	32259.365234
3364.670898	32762.605469
3363.927734	32450.789063
3363.185547	32600.320313
3362.443359	32628.619141
3361.700195	32320.341797
3360.957031	32634.708984
3360.213867	32235.687500
3359.470703	32368.306641
3358.727539	32470.609375
3357.984375	32293.759766
3357.241211	32288.445313
3356.497070	32360.451172
3355.752930	32637.468750
3355.009766	32467.423828
3354.265625	32381.437500
3353.521484	32685.187500
3352.777344	32306.958984
3352.032227	32153.869141
3351.288086	32511.228516
3350.542969	32583.097656
3349.798828	32812.710938
3349.053711	32538.808594
3348.308594	32858.953125
3347.563477	32444.216797
3346.818359	32512.675781
3346.073242	32691.794922
3345.327148	32163.269531
3344.582031	32489.914063
3343.835938	32487.917969
3343.090820	32281.458984
3342.344727	32296.250000
3341.598633	32699.720703
3340.851563	32610.582031
3340.105469	32518.121094
3339.359375	32549.607422
3338.612305	32256.273438
3337.866211	32471.927734
3337.119141	32530.179688
3336.372070	32648.656250
3335.625000	32529.505859
3334.877930	32500.726563
3334.130859	32488.683594
3333.382813	32630.496094
3332.635742	32648.531250
3331.887695	32358.951172
3331.139648	32410.451172
3330.391602	32398.427734
3329.643555	32977.921875
3328.895508	32681.792969
3328.147461	32883.539063
3327.398438	32644.302734
3326.650391	32525.375000
3325.901367	32703.667969
3325.152344	32678.248047
3324.404297	32352.412109
3323.654297	32647.455078
3322.905273	32602.033203
3322.156250	32172.937500
3321.407227	32627.982422
3320.657227	33012.835938
3319.907227	32370.457031
3319.158203	32715.214844
3318.408203	32319.785156
3317.658203	32567.775391
3316.907227	32562.406250
3316.157227	32240.498047
3315.407227	32391.763672
3314.656250	32249.857422
3313.905273	32607.550781
3313.155273	32768.664063
3312.404297	32603.458984
3311.653320	32724.576172
3310.901367	32612.679688
3310.150391	32434.267578
3309.399414	32425.591797
3308.647461	32227.308594
3307.895508	32365.011719
3307.144531	32446.136719
3306.392578	32543.857422
3305.640625	32352.328125
3304.887695	32220.691406
3304.135742	32564.316406
3303.383789	32555.623047
3302.630859	32527.000000
3301.877930	32787.363281
3301.125000	32366.826172
3300.372070	32544.115234
3299.619141	32366.109375
3298.866211	32536.699219
3298.113281	32528.013672
3297.359375	32579.060547
3296.606445	32706.396484
3295.852539	32598.167969
3295.098633	32582.839844
3294.344727	32527.724609
3293.590820	32260.427734
3292.836914	32314.777344
3292.082031	32435.394531
3291.328125	32569.228516
3290.573242	32709.644531
3289.818359	32525.353516
3289.064453	32996.957031
3288.309570	32431.828125
3287.553711	32492.701172
3286.798828	32831.644531
3286.043945	32763.335938
3285.288086	32205.234375
3284.533203	32395.152344
3283.777344	32439.431641
3283.021484	32318.300781
3282.265625	32547.791016
3281.509766	32185.283203
3280.752930	32441.166016
3279.997070	32482.091797
3279.240234	32390.794922
3278.484375	32491.197266
3277.727539	32588.259766
3276.970703	32229.402344
3276.213867	32402.443359
3275.457031	32278.205078
3274.700195	32395.046875
3273.942383	32326.972656
3273.185547	32711.132813
3272.427734	32313.000000
3271.669922	32119.580078
3270.912109	31833.845703
3270.154297	32019.910156
3269.396484	32324.644531
3268.637695	32325.902344
3267.879883	32452.443359
3267.121094	32391.044922
3266.363281	32474.685547
3265.604492	32667.044922
3264.845703	32513.382813
3264.086914	32284.001953
3263.328125	32334.662109
3262.568359	32474.222656
3261.809570	32419.468750
3261.049805	32351.564453
3260.290039	32112.519531
3259.530273	32344.167969
3258.770508	32858.722656
3258.010742	32629.576172
3257.250977	32051.832031
3256.491211	32161.646484
3255.730469	32498.316406
3254.970703	32154.308594
3254.209961	32316.644531
3253.449219	32058.230469
3252.688477	32286.248047
3251.927734	32412.337891
3251.166016	32242.728516
3250.405273	32355.642578
3249.643555	32123.703125
3248.882813	32381.068359
3248.121094	32326.472656
3247.359375	32360.519531
3246.597656	32322.353516
3245.835938	32297.324219
3245.073242	32452.740234
3244.311523	32424.414063
3243.548828	32199.320313
3242.787109	32020.207031
3242.024414	32162.447266
3241.261719	32229.248047
3240.499023	32381.236328
3239.736328	32139.947266
3238.972656	32308.281250
3238.209961	31965.529297
3237.446289	32232.091797
3236.682617	32354.478516
3235.919922	32142.853516
3235.156250	31744.699219
3234.391602	32099.494141
3233.627930	32061.460938
3232.864258	32295.017578
3232.099609	32692.072266
3231.335938	32091.351563
3230.571289	32239.753906
3229.806641	31976.101563
3229.041992	32618.140625
3228.277344	32439.500000
3227.511719	32117.115234
3226.747070	32216.369141
3225.981445	32152.230469
3225.216797	31892.115234
3224.451172	32118.732422
3223.685547	32240.775391
3222.919922	32088.517578
3222.154297	31861.224609
3221.387695	31865.744141
3220.622070	32180.285156
3219.855469	32445.777344
3219.089844	32306.654297
3218.323242	32258.906250
3217.556641	31845.914063
3216.790039	31733.042969
3216.022461	31832.117188
3215.255859	32103.916016
3214.489258	31818.322266
3213.721680	31718.560547
3212.954102	32013.046875
3212.186523	31835.103516
3211.418945	31849.375000
3210.651367	32150.203125
3209.883789	32239.300781
3209.115234	31761.947266
3208.347656	32082.166016
3207.579102	32164.718750
3206.810547	32071.544922
3206.041992	31799.478516
3205.273438	31660.857422
3204.504883	31541.792969
3203.736328	31962.521484
3202.966797	31833.693359
3202.198242	32293.236328
3201.428711	31910.900391
3200.659180	31921.863281
3199.889648	31845.103516
3199.120117	31986.003906
3198.350586	31922.248047
3197.581055	31985.152344
3196.810547	31444.152344
3196.041016	31815.498047
3195.270508	32053.650391
3194.500000	31743.304688
3193.729492	31854.851563
3192.958984	31677.642578
3192.187500	31854.029297
3191.416992	31923.341797
3190.645508	31444.664063
3189.875000	31617.757813
3189.103516	31729.207031
3188.332031	31779.044922
3187.560547	31922.830078
3186.789063	31567.654297
3186.016602	31601.294922
3185.245117	31634.921875
3184.472656	31296.158203
3183.701172	31695.666016
3182.928711	31781.050781
3182.156250	31571.886719
3181.383789	31832.001953
3180.611328	31768.490234
3179.837891	31591.777344
3179.065430	31453.933594
3178.291992	31493.994141
3177.518555	31899.400391
3176.745117	31658.123047
3175.971680	31701.359375
3175.198242	31515.132813
3174.424805	31577.761719
3173.650391	31452.996094
3172.876953	31341.191406
3172.102539	31597.585938
3171.328125	31175.810547
3170.553711	31603.253906
3169.779297	31733.585938
3169.004883	31276.492188
3168.230469	31832.777344
3167.455078	31530.679688
3166.680664	31577.064453
3165.905273	31687.937500
3165.129883	31144.158203
3164.354492	31609.720703
3163.579102	31346.589844
3162.803711	31341.390625
3162.027344	31368.419922
3161.251953	31585.537109
3160.475586	31325.800781
3159.699219	31455.884766
3158.922852	31209.136719
3158.146484	31213.619141
3157.370117	31086.107422
3156.593750	31254.767578
3155.816406	31420.152344
3155.040039	31418.158203
3154.262695	31512.679688
3153.485352	31301.583984
3152.708008	31039.097656
3151.930664	31339.433594
3151.153320	31710.398438
3150.375000	30988.292969
3149.597656	31519.892578
3148.819336	31244.728516
3148.041992	31499.792969
3147.263672	31179.750000
3146.485352	31309.474609
3145.706055	31439.156250
3144.927734	31186.705078
3144.149414	31165.478516
3143.370117	31856.822266
3142.590820	31527.404297
3141.812500	31342.484375
3141.033203	31141.585938
3140.252930	31178.115234
3139.473633	30881.093750
3138.694336	31199.832031
3137.914063	31053.585938
3137.134766	30933.033203
3136.354492	30956.744141
3135.574219	31207.958984
3134.793945	30811.902344
3134.013672	31091.884766
3133.233398	30907.365234
3132.452148	31228.867188
3131.671875	31143.638672
3130.890625	30997.613281
3130.109375	31130.095703
3129.328125	30932.916016
3128.546875	30809.392578
3127.765625	30836.265625
3126.984375	31080.634766
3126.202148	31037.095703
3125.419922	30936.015625
3124.638672	31058.757813
3123.856445	31050.402344
3123.074219	30901.427734
3122.291992	30861.146484
3121.508789	30865.603516
3120.726563	30665.621094
3119.943359	30832.992188
3119.161133	30831.064453
3118.377930	31020.699219
3117.594727	30887.857422
3116.811523	31102.951172
3116.028320	31384.988281
3115.244141	30984.134766
3114.460938	30845.003906
3113.676758	31200.298828
3112.892578	30888.966797
3112.108398	30950.792969
3111.324219	30907.392578
3110.540039	30883.132813
3109.755859	30967.232422
3108.971680	30783.648438
3108.186523	30858.177734
3107.401367	30658.744141
3106.617188	30949.833984
3105.832031	30817.320313
3105.046875	30665.746094
3104.260742	30571.517578
3103.475586	30499.599609
3102.689453	30819.107422
3101.904297	30673.994141
3101.118164	30474.847656
3100.332031	30752.849609
3099.545898	30687.316406
3098.759766	30815.753906
3097.973633	30569.027344
3097.186523	30627.513672
3096.400391	30952.923828
3095.613281	30725.359375
3094.826172	30955.337891
3094.039063	30680.201172
3093.251953	30668.748047
3092.464844	30435.027344
3091.677734	30461.712891
3090.889648	30558.220703
3090.101563	30423.017578
3089.314453	30376.705078
3088.526367	30431.402344
3087.738281	30486.099609
3086.950195	30540.794922
3086.161133	30595.560547
3085.373047	30650.257813
3084.583984	30705.021484
3083.795898	30759.718750
3083.006836	30488.410156
3082.217773	30625.916016
3081.428711	30386.396484
3080.638672	30732.917969
3079.849609	30759.472656
3079.060547	30833.511719
3078.270508	30594.111328
3077.480469	30310.478516
3076.690430	30539.623047
3075.900391	30518.720703
3075.110352	30668.660156
3074.320313	30673.044922
3073.529297	30490.833984
3072.739258	30163.224609
3071.948242	30686.185547
3071.157227	30557.796875
3070.366211	30170.287109
3069.575195	30550.783203
3068.784180	30356.128906
3067.992188	30559.566406
3067.201172	30459.726563
3066.409180	30716.757813
3065.617188	30777.949219
3064.825195	30744.412109
3064.033203	30827.669922
3063.241211	30702.617188
3062.449219	30432.462891
3061.656250	30298.050781
3060.864258	30362.396484
3060.071289	30467.718750
3059.278320	30759.042969
3058.485352	30876.871094
3057.692383	30651.082031
3056.898438	30157.480469
3056.105469	30543.189453
3055.311523	30651.519531
3054.518555	30372.363281
3053.724609	30370.453125
3052.930664	30459.863281
3052.136719	30668.880859
3051.342773	30377.312500
3050.547852	30098.429688
3049.753906	30439.568359
3048.958984	30959.935547
3048.164063	30545.820313
3047.369141	30364.595703
3046.574219	30607.970703
3045.779297	30209.841797
3044.984375	30258.250000
3044.188477	30334.929688
3043.393555	30314.162109
3042.597656	30811.851563
3041.801758	30407.730469
3041.005859	30609.974609
3040.209961	30564.044922
3039.414063	30568.371094
3038.617188	30431.416016
3037.821289	30630.376953
3037.024414	30414.994141
3036.227539	30698.615234
3035.430664	30282.492188
3034.633789	30710.337891
3033.836914	30774.218750
3033.040039	30627.972656
3032.242188	30309.332031
3031.445313	30470.423828
3030.647461	30443.402344
3029.849609	30513.537109
3029.051758	30066.660156
3028.253906	30296.599609
3027.455078	30094.218750
3026.657227	30427.421875
3025.858398	30356.591797
3025.060547	30514.322266
3024.261719	30596.876953
3023.462891	30939.158203
3022.664063	30430.216797
3021.864258	30318.769531
3021.065430	30260.535156
3020.265625	30590.130859
3019.466797	30266.074219
3018.666992	30339.187500
3017.867188	30184.080078
3017.067383	30332.189453
3016.267578	30167.757813
3015.466797	30625.132813
3014.666992	30416.970703
3013.866211	30430.636719
3013.065430	30366.224609
3012.264648	30470.437500
3011.463867	30393.550781
3010.663086	30660.027344
3009.862305	30395.890625
3009.060547	30471.941406
3008.259766	30638.439453
3007.458008	30692.587891
3006.656250	30341.296875
3005.854492	30504.609375
3005.052734	30424.695313
3004.250977	30684.568359
3003.448242	30635.814453
3002.646484	30515.406250
3001.843750	30877.943359
3001.041016	30891.476563
3000.238281	30852.060547
2999.435547	30622.703125
2998.632813	31000.542969
2997.830078	30908.205078
2997.026367	30934.167969
2996.222656	31233.966797
2995.419922	31066.958984
2994.616211	30943.558594
2993.812500	31184.105469
2993.007813	31443.230469
2992.204102	31450.416016
2991.400391	30901.128906
2990.595703	31209.900391
2989.791016	31484.382813
2988.986328	31410.765625
2988.181641	31399.304688
2987.376953	31856.878906
2986.572266	31935.408203
2985.766602	32343.054688
2984.961914	32067.550781
2984.156250	32024.943359
2983.350586	32398.228516
2982.544922	32178.703125
2981.739258	32688.347656
2980.933594	32831.781250
2980.126953	32813.890625
2979.321289	32814.609375
2978.514648	33221.484375
2977.708008	33423.628906
2976.901367	33452.136719
2976.094727	33635.582031
2975.288086	33540.105469
2974.481445	33605.750000
2973.673828	33686.859375
2972.867188	34405.886719
2972.059570	34536.375000
2971.251953	34456.300781
2970.444336	34534.113281
2969.636719	34970.890625
2968.828125	34739.164063
2968.020508	35228.351563
2967.211914	35321.445313
2966.403320	35804.187500
2965.594727	35609.574219
2964.786133	35690.187500
2963.977539	36024.246094
2963.168945	36058.398438
2962.360352	36265.585938
2961.550781	36222.445313
2960.741211	36571.632813
2959.931641	36766.273438
2959.122070	36997.902344
2958.312500	36713.835938
2957.502930	37448.578125
2956.693359	37439.226563
2955.882813	37510.113281
2955.072266	37886.437500
2954.261719	37809.144531
2953.451172	38105.093750
2952.640625	38385.519531
2951.830078	38372.933594
2951.019531	39007.750000
2950.208008	38918.000000
2949.396484	38791.296875
2948.585938	39096.019531
2947.774414	39163.417969
2946.962891	39246.191406
2946.150391	39442.890625
2945.338867	39399.335938
2944.527344	39349.640625
2943.714844	39657.035156
2942.902344	39299.535156
2942.089844	39446.816406
2941.277344	40163.238281
2940.464844	40104.218750
2939.652344	40460.433594
2938.838867	40176.898438
2938.026367	39782.765625
2937.212891	40145.000000
2936.399414	40039.925781
2935.585938	39968.683594
2934.772461	39968.136719
2933.958008	39878.500000
2933.144531	39650.667969
2932.330078	40153.820313
2931.516602	39609.757813
2930.702148	39695.222656
2929.887695	39077.746094
2929.073242	39405.718750
2928.257813	38902.027344
2927.443359	38855.628906
2926.627930	39223.347656
2925.813477	38400.976563
2924.998047	38345.480469
2924.182617	38311.460938
2923.367188	38234.539063
2922.550781	38010.527344
2921.735352	38188.023438
2920.918945	38037.625000
2920.103516	37813.753906
2919.287109	37687.968750
2918.470703	37433.605469
2917.654297	37197.699219
2916.836914	36863.910156
2916.020508	36738.363281
2915.204102	36906.640625
2914.386719	36557.761719
2913.569336	36664.828125
2912.751953	36294.695313
2911.934570	35985.851563
2911.117188	36031.796875
2910.298828	35713.925781
2909.481445	35750.734375
2908.663086	35594.988281
2907.844727	35692.914063
2907.026367	35586.109375
2906.208008	35073.078125
2905.389648	35534.476563
2904.571289	35412.480469
2903.751953	35446.234375
2902.933594	35831.019531
2902.114258	35675.460938
2901.294922	35974.632813
2900.475586	35861.812500
2899.656250	35614.808594
2898.835938	35663.734375
2898.016602	36359.136719
2897.196289	36353.039063
2896.376953	36487.171875
2895.556641	36907.765625
2894.736328	36605.972656
2893.915039	36992.886719
2893.094727	36621.109375
2892.274414	37379.492188
2891.453125	37586.398438
2890.631836	37765.832031
2889.810547	38070.023438
2888.989258	38298.015625
2888.167969	38519.839844
2887.346680	38729.417969
2886.524414	38655.988281
2885.703125	38619.082031
2884.880859	38953.230469
2884.058594	39202.121094
2883.236328	39235.066406
2882.414063	39356.152344
2881.591797	39294.839844
2880.768555	38911.437500
2879.946289	38974.785156
2879.123047	39387.453125
2878.299805	39198.609375
2877.476563	38845.839844
2876.653320	39303.859375
2875.830078	38908.691406
2875.005859	38984.109375
2874.182617	38628.574219
2873.358398	38227.644531
2872.534180	38063.476563
2871.709961	37568.746094
2870.885742	37444.164063
2870.060547	37468.199219
2869.236328	37240.597656
2868.411133	37170.687500
2867.586914	36815.925781
2866.761719	36346.136719
2865.936523	35873.472656
2865.111328	35773.546875
2864.286133	35507.078125
2863.459961	35794.839844
2862.634766	35174.230469
2861.808594	35016.968750
2860.982422	34705.406250
2860.156250	34729.835938
2859.330078	34339.757813
2858.503906	33952.835938
2857.676758	34225.386719
2856.850586	33654.148438
2856.023438	33733.148438
2855.196289	33624.699219
2854.369141	33123.363281
2853.541992	33030.160156
2852.714844	33435.527344
2851.886719	32677.691406
2851.059570	32672.199219
2850.231445	32530.810547
2849.403320	32304.923828
2848.575195	32353.833984
2847.747070	31895.632813
2846.918945	31998.916016
2846.089844	31456.439453
2845.261719	31366.677734
2844.432617	31545.404297
2843.603516	31328.990234
2842.774414	31543.843750
2841.945313	31137.562500
2841.116211	31274.001953
2840.286133	31099.968750
2839.457031	30983.244141
2838.626953	31053.355469
2837.796875	30629.419922
2836.966797	30576.078125
2836.136719	30573.947266
2835.306641	30481.492188
2834.476563	30539.582031
2833.645508	30549.494141
2832.814453	30351.761719
2831.984375	30352.673828
2831.153320	30031.697266
2830.321289	30171.019531
2829.490234	29946.412109
2828.659180	30016.542969
2827.827148	29650.742188
2826.995117	30009.449219
2826.164063	30118.599609
2825.332031	29786.015625
2824.500000	29645.812500
2823.666992	29601.775391
2822.834961	29542.736328
2822.001953	29468.701172
2821.169922	29724.935547
2820.336914	29602.865234
2819.503906	28979.634766
2818.670898	29508.882813
2817.836914	29170.894531
2817.003906	29010.000000
2816.169922	28861.156250
2815.336914	28772.333984
2814.502930	28794.474609
2813.668945	28645.738281
2812.834961	28925.646484
2812.000000	28968.722656
2811.166016	28760.107422
2810.331055	28940.996094
2809.497070	28528.781250
2808.662109	28661.732422
2807.827148	28606.005859
2806.992188	28490.423828
2806.156250	28162.367188
2805.321289	28403.019531
2804.485352	28404.220703
2803.650391	28525.083984
2802.814453	28122.460938
2801.978516	28581.269531
2801.142578	28316.316406
2800.305664	28410.203125
2799.469727	28007.867188
2798.632813	28197.406250
2797.795898	27989.466797
2796.959961	28238.695313
2796.123047	28090.558594
2795.285156	28229.181641
2794.448242	28063.175781
2793.611328	28097.259766
2792.773438	28283.570313
2791.935547	27968.408203
2791.097656	27969.664063
2790.259766	27914.228516
2789.421875	28180.982422
2788.583984	27719.902344
2787.745117	27923.974609
2786.907227	27999.769531
2786.068359	28167.951172
2785.229492	28058.882813
2784.390625	27669.726563
2783.551758	28028.566406
2782.712891	28017.884766
2781.873047	27816.576172
2781.033203	28017.371094
2780.194336	27753.601563
2779.354492	27951.361328
2778.514648	28077.615234
2777.673828	27680.044922
2776.833984	27496.845703
2775.994141	27935.486328
2775.153320	27814.769531
2774.312500	27587.027344
2773.471680	27469.380859
2772.630859	27530.154297
2771.790039	27394.718750
2770.949219	27526.810547
2770.107422	27697.488281
2769.265625	27544.263672
2768.424805	27400.003906
2767.583008	27600.312500
2766.741211	27568.929688
2765.898438	27591.000000
2765.056641	27473.541016
2764.213867	27314.570313
2763.372070	27265.447266
2762.529297	27453.703125
2761.686523	27431.271484
2760.843750	27153.769531
2760.000977	27362.703125
2759.157227	27111.990234
2758.314453	27137.058594
2757.470703	27262.894531
2756.626953	27296.818359
2755.783203	27315.916016
2754.939453	27263.904297
2754.095703	27117.126953
2753.250977	26943.744141
2752.407227	27161.269531
2751.562500	27056.027344
2750.717773	27163.939453
2749.873047	26981.783203
2749.028320	27205.070313
2748.183594	27179.767578
2747.337891	27045.025391
2746.493164	26898.498047
2745.647461	26660.353516
2744.801758	27087.500000
2743.956055	26666.128906
2743.110352	27072.439453
2742.263672	27073.777344
2741.417969	27163.750000
2740.571289	26872.623047
2739.725586	26717.453125
2738.878906	27070.255859
2738.032227	26752.714844
2737.184570	26653.732422
2736.337891	27062.441406
2735.491211	27208.371094
2734.643555	26584.164063
2733.795898	26818.625000
2732.948242	26926.175781
2732.100586	26812.511719
2731.252930	26749.009766
2730.404297	26812.294922
2729.556641	26975.771484
2728.708008	26576.310547
2727.859375	26845.847656
2727.010742	27162.427734
2726.162109	26813.208984
2725.313477	26858.742188
2724.464844	26677.529297
2723.615234	26849.662109
2722.765625	26665.566406
2721.916992	26560.996094
2721.067383	26950.806641
2720.216797	26604.972656
2719.367188	26879.921875
2718.517578	26948.904297
2717.666992	26709.101563
2716.816406	26672.244141
2715.966797	26703.009766
2715.116211	26689.675781
2714.264648	26532.357422
2713.414063	26574.878906
2712.563477	26223.750000
2711.711914	26656.939453
2710.860352	26587.826172
2710.008789	26468.822266
2709.157227	26241.240234
2708.305664	26536.179688
2707.454102	26247.035156
2706.601563	26330.617188
2705.750000	26290.958984
2704.897461	26239.582031
2704.044922	25830.441406
2703.192383	25987.337891
2702.338867	25956.556641
2701.486328	26004.923828
2700.633789	26038.621094
2699.780273	25963.892578
2698.926758	25807.156250
2698.073242	25424.929688
2697.219727	25833.566406
2696.366211	25969.744141
2695.511719	25842.386719
2694.658203	25612.623047
2693.803711	25851.199219
2692.949219	25685.884766
2692.094727	25661.056641
2691.240234	25156.507813
2690.385742	25561.703125
2689.530273	25759.144531
2688.675781	25485.802734
2687.820313	24926.080078
2686.964844	25532.705078
2686.109375	25329.669922
2685.253906	25228.964844
2684.397461	25078.630859
2683.541992	25237.945313
2682.685547	25300.835938
2681.829102	25422.099609
2680.972656	25111.273438
2680.116211	25004.863281
2679.259766	25064.830078
2678.403320	25177.294922
2677.545898	25243.042969
2676.688477	24993.757813
2675.832031	25292.816406
2674.974609	25136.910156
2674.117188	25345.466797
2673.258789	25105.074219
2672.401367	24931.792969
2671.542969	25268.482422
2670.685547	25133.101563
2669.827148	24895.816406
2668.968750	25008.091797
2668.109375	25131.972656
2667.250977	24929.742188
2666.392578	25079.792969
2665.533203	25052.257813
2664.673828	25234.242188
2663.814453	24869.205078
2662.955078	24873.714844
2662.095703	24974.199219
2661.236328	24920.531250
2660.375977	24791.289063
2659.516602	24650.462891
2658.656250	24686.972656
2657.795898	24723.468750
2656.935547	24576.912109
2656.074219	24625.033203
2655.213867	24617.953125
2654.352539	24904.171875
2653.492188	24597.988281
2652.630859	24439.960938
2651.769531	24763.792969
2650.908203	24350.416016
2650.045898	24375.300781
2649.184570	24719.283203
2648.322266	24152.394531
2647.460938	24481.798828
2646.598633	24573.328125
2645.736328	24569.160156
2644.873047	24460.644531
2644.010742	24586.906250
2643.147461	24272.697266
2642.285156	24349.695313
2641.421875	24391.908203
2640.558594	24098.162109
2639.695313	24299.658203
2638.832031	24489.505859
2637.967773	24146.681641
2637.104492	24295.970703
2636.240234	24083.507813
2635.375977	24290.617188
2634.511719	24309.634766
2633.647461	24262.126953
2632.783203	24275.357422
2631.917969	24120.896484
2631.053711	24050.316406
2630.188477	23838.140625
2629.323242	24146.179688
2628.458008	23913.833984
2627.592773	23785.558594
2626.726563	24113.664063
2625.861328	24236.628906
2624.995117	24070.828125
2624.128906	23749.199219
2623.262695	23901.023438
2622.396484	23954.679688
2621.530273	23907.332031
2620.664063	23704.220703
2619.796875	23858.830078
2618.929688	24301.765625
2618.062500	23928.574219
2617.195313	23996.580078
2616.328125	24058.796875
2615.460938	24092.173828
2614.592773	24056.384766
2613.725586	23853.517578
2612.857422	23956.039063
2611.989258	24098.841797
2611.121094	23887.431641
2610.252930	23889.128906
2609.383789	23864.919922
2608.515625	23742.869141
2607.646484	23669.777344
2606.777344	23740.554688
2605.908203	23558.177734
2605.039063	23755.492188
2604.169922	24125.265625
2603.300781	23718.666016
2602.430664	23648.521484
2601.560547	23506.546875
2600.690430	23666.341797
2599.820313	23656.572266
2598.950195	23681.275391
2598.080078	23464.716797
2597.208984	23658.865234
2596.338867	23735.232422
2595.467773	23269.029297
2594.596680	23344.773438
2593.725586	23420.517578
2592.853516	23496.347656
2591.982422	23572.091797
2591.110352	23647.921875
2590.239258	23443.164063
2589.367188	23915.126953
2588.495117	23455.255859
2587.623047	23565.914063
2586.750000	23192.226563
2585.877930	23219.798828
2585.004883	23233.037109
2584.132813	23320.740234
2583.259766	23442.777344
2582.386719	23075.152344
2581.512695	23265.894531
2580.639648	23267.660156
2579.765625	23232.220703
2578.892578	23242.574219
2578.018555	23204.287109
2577.144531	23251.824219
2576.270508	23059.115234
2575.395508	23049.472656
2574.521484	22959.781250
2573.646484	23055.917969
2572.772461	23186.314453
2571.897461	23062.355469
2571.022461	23098.425781
2570.146484	23420.130859
2569.271484	23376.158203
2568.396484	23086.628906
2567.520508	23176.914063
2566.644531	23018.822266
2565.768555	23149.042969
2564.892578	23059.494141
2564.016602	22952.855469
2563.139648	23074.460938
2562.263672	22979.263672
2561.386719	22992.458984
2560.509766	22643.556641
2559.632813	22767.978516
2558.755859	22744.148438
2557.877930	22771.621094
2557.000977	22804.781250
2556.123047	22857.869141
2555.245117	22947.964844
2554.367188	22773.191406
2553.489258	22772.158203
2552.611328	22600.320313
2551.733398	22448.462891
2550.854492	22461.712891
2549.975586	22477.802734
2549.096680	22491.039063
2548.217773	22800.082031
2547.338867	23015.171875
2546.459961	22573.373047
2545.580078	22765.681641
2544.701172	22724.849609
2543.821289	22752.238281
2542.941406	22660.275391
2542.061523	22753.003906
2541.181641	22840.017578
2540.300781	22381.730469
2539.420898	22908.896484
2538.540039	22496.175781
2537.659180	22498.015625
2536.778320	22423.228516
2535.897461	22637.894531
2535.015625	22506.367188
2534.134766	22420.267578
2533.252930	22691.544922
2532.371094	22554.400391
2531.489258	22680.968750
2530.607422	22730.958984
2529.725586	22545.695313
2528.843750	22519.179688
2527.960938	22342.513672
2527.078125	22290.544922
2526.195313	22323.562500
2525.312500	22483.994141
2524.429688	22349.919922
2523.546875	22414.044922
2522.663086	22557.394531
2521.780273	22346.968750
2520.896484	22184.712891
2520.012695	22161.125000
2519.128906	22344.013672
2518.245117	22283.642578
2517.360352	22319.423828
2516.476563	21950.943359
2515.591797	22229.837891
2514.707031	22446.466797
2513.822266	22083.800781
2512.937500	22173.255859
2512.051758	21943.509766
2511.166992	22222.164063
2510.281250	22023.546875
2509.395508	22234.337891
2508.509766	22151.509766
2507.624023	22325.517578
2506.738281	22107.263672
2505.851563	22219.154297
2504.965820	22110.996094
2504.079102	22025.435547
2503.192383	22114.722656
2502.305664	22150.414063
2501.418945	21873.214844
2500.532227	21923.025391
2499.644531	21972.816406
2498.756836	22169.089844
2497.870117	22280.789063
2496.982422	22068.576172
2496.093750	22059.173828
2495.206055	22187.726563
2494.318359	21843.335938
2493.429688	21825.531250
2492.541016	21889.335938
2491.652344	21924.982422
2490.763672	21707.453125
2489.875000	21847.177734
2488.986328	21865.939453
2488.096680	21960.603516
2487.207031	21813.488281
2486.318359	21924.992188
2485.427734	21584.037109
2484.538086	21605.632813
2483.648438	21804.195313
2482.758789	21851.021484
2481.868164	21442.914063
2480.977539	21762.128906
2480.086914	21733.142578
2479.196289	21600.318359
2478.305664	21748.160156
2477.414063	21890.339844
2476.523438	21656.564453
2475.631836	21866.023438
2474.740234	21764.132813
2473.848633	21463.207031
2472.957031	21347.402344
2472.065430	21453.060547
2471.172852	21614.732422
2470.280273	21583.015625
2469.388672	21713.791016
2468.496094	21581.232422
2467.602539	21535.533203
2466.709961	21338.650391
2465.817383	21446.978516
2464.923828	21188.597656
2464.030273	21487.214844
2463.136719	21497.527344
2462.243164	21454.683594
2461.349609	21562.894531
2460.456055	21341.068359
2459.561523	21130.500000
2458.666992	21224.730469
2457.773438	21268.617188
2456.878906	21248.207031
2455.983398	21286.484375
2455.088867	21335.919922
2454.194336	21175.843750
2453.298828	20999.064453
2452.403320	21238.402344
2451.507813	20944.414063
2450.612305	21055.273438
2449.716797	21194.001953
2448.820313	21198.744141
2447.924805	21228.593750
2447.028320	21219.378906
2446.131836	21271.523438
2445.235352	21081.050781
2444.338867	20985.435547
2443.442383	20845.251953
2442.544922	20919.718750
2441.647461	21072.183594
2440.750000	21166.087891
2439.852539	21048.250000
2438.955078	21030.718750
2438.057617	20826.617188
2437.160156	20892.654297
2436.261719	20811.130859
2435.363281	21038.574219
2434.464844	20893.046875
2433.566406	20469.339844
2432.667969	20716.195313
2431.768555	20876.744141
2430.870117	20631.230469
2429.970703	20725.007813
2429.071289	20754.814453
2428.171875	20648.417969
2427.272461	20567.066406
2426.373047	20680.236328
2425.472656	20704.472656
2424.572266	20817.578125
2423.672852	20394.673828
2422.772461	20382.847656
2421.871094	20701.380859
2420.970703	20586.804688
2420.070313	20552.748047
2419.168945	20241.234375
2418.267578	20237.763672
2417.366211	20517.212891
2416.464844	20663.447266
2415.563477	20465.810547
2414.661133	20462.298828
2413.759766	20575.205078
2412.857422	20222.486328
2411.955078	20174.683594
2411.052734	20204.466797
2410.150391	20489.072266
2409.248047	20529.867188
2408.344727	20374.052734
2407.441406	20412.083984
2406.538086	20236.962891
2405.634766	20277.771484
2404.731445	20149.773438
2403.828125	20193.347656
2402.923828	20546.710938
2402.020508	20308.105469
2401.116211	20102.761719
2400.211914	19905.783203
2399.307617	20587.890625
2398.403320	20261.000000
2397.498047	20177.386719
2396.593750	20085.513672
2395.688477	20059.964844
2394.783203	20321.658203
2393.877930	19909.486328
2392.972656	20245.658203
2392.066406	19894.369141
2391.161133	19951.669922
2390.254883	19926.167969
2389.348633	20041.382813
2388.442383	19875.187500
2387.536133	20277.208984
2386.629883	19975.906250
2385.722656	20264.728516
2384.815430	20150.982422
2383.909180	19924.271484
2383.001953	20003.519531
2382.093750	19851.300781
2381.186523	19787.287109
2380.279297	19951.896484
2379.371094	19918.177734
2378.462891	20090.966797
2377.554688	19669.082031
2376.646484	19885.890625
2375.738281	19783.406250
2374.829102	19738.734375
2373.920898	19903.150391
2373.011719	19806.212891
2372.102539	19731.308594
2371.193359	19483.207031
2370.284180	19600.816406
2369.375000	19721.134766
2368.464844	19857.896484
2367.554688	19554.990234
2366.644531	19735.689453
2365.734375	19806.455078
2364.824219	19630.037109
2363.914063	19547.035156
2363.002930	19661.720703
2362.092773	19597.955078
2361.181641	19781.199219
2360.270508	19739.382813
2359.359375	19785.369141
2358.447266	19598.189453
2357.536133	19529.000000
2356.624023	19536.609375
2355.711914	19582.595703
2354.800781	19502.476563
2353.887695	19773.177734
2352.975586	19427.265625
2352.063477	19481.455078
2351.150391	19321.970703
2350.237305	19526.785156
2349.324219	19509.734375
2348.411133	19550.181641
2347.498047	19393.529297
2346.584961	19299.876953
2345.670898	19362.228516
2344.756836	19599.650391
2343.843750	19139.468750
2342.929688	19155.318359
2342.014648	19365.306641
2341.100586	19430.322266
2340.185547	19375.041016
2339.271484	19407.234375
2338.356445	19453.080078
2337.441406	19307.662109
2336.526367	19263.363281
2335.610352	18940.501953
2334.695313	19161.154297
2333.779297	19354.429688
2332.863281	19274.664063
2331.947266	19252.240234
2331.031250	19128.857422
2330.115234	19155.574219
2329.198242	19272.300781
2328.282227	18952.603516
2327.365234	19132.042969
2326.448242	18978.791016
2325.531250	19095.464844
2324.614258	19266.607422
2323.696289	19127.037109
2322.779297	19148.261719
2321.861328	18951.550781
2320.943359	18978.246094
2320.025391	18936.851563
2319.107422	19156.847656
2318.188477	18952.101563
2317.270508	18943.392578
2316.351563	18863.931641
2315.432617	18596.761719
2314.513672	19238.277344
2313.594727	18894.976563
2312.674805	19141.904297
2311.755859	19002.658203
2310.835938	18855.302734
2309.916016	18868.359375
2308.996094	18799.886719
2308.076172	18630.904297
2307.156250	18725.488281
2306.235352	18830.904297
2305.315430	18824.941406
2304.394531	18856.992188
2303.473633	18899.890625
2302.551758	19045.914063
2301.630859	18817.384766
2300.709961	18903.679688
2299.788086	18517.906250
2298.866211	18601.507813
2297.944336	18717.623047
2297.022461	18380.886719
2296.100586	18410.248047
2295.177734	18398.939453
2294.255859	18287.363281
2293.333008	18549.746094
2292.410156	18419.216797
2291.487305	18581.265625
2290.563477	18412.859375
2289.640625	18277.005859
2288.716797	18344.238281
2287.793945	18400.621094
2286.870117	18318.962891
2285.946289	18437.562500
2285.021484	18144.906250
2284.097656	18298.658203
2283.172852	18322.542969
2282.249023	18341.011719
2281.324219	18391.916016
2280.399414	18277.916016
2279.473633	18353.132813
2278.548828	18290.517578
2277.623047	18327.884766
2276.698242	18181.556641
2275.772461	18154.111328
2274.846680	18240.083984
2273.919922	18066.847656
2272.994141	18233.783203
2272.067383	18020.125000
2271.141602	18049.392578
2270.214844	17914.076172
2269.288086	18191.515625
2268.361328	17975.312500
2267.433594	17867.042969
2266.506836	18025.718750
2265.579102	18046.863281
2264.651367	17979.062500
2263.723633	17884.337891
2262.795898	18010.568359
2261.867188	18004.761719
2260.939453	17484.546875
2260.010742	17583.849609
2259.082031	17742.349609
2258.153320	17741.974609
2257.224609	17903.082031
2256.295898	17886.533203
2255.366211	17740.847656
2254.437500	17630.179688
2253.507813	17912.222656
2252.578125	17529.966797
2251.648438	17707.072266
2250.717773	17583.044922
2249.788086	17735.888672
2248.857422	17824.185547
2247.926758	17391.226563
2246.996094	17640.728516
2246.065430	17780.025391
2245.134766	17605.087891
2244.203125	17524.181641
2243.272461	17309.082031
2242.340820	17679.156250
2241.409180	17531.189453
2240.477539	17624.746094
2239.544922	17490.250000
2238.613281	17629.375000
2237.680664	17484.199219
2236.748047	17349.796875
2235.816406	17397.728516
2234.882813	17300.908203
2233.950195	17078.173828
2233.017578	17361.904297
2232.083984	17506.234375
2231.150391	17371.964844
2230.216797	17243.095703
2229.283203	17368.628906
2228.349609	17309.406250
2227.415039	17180.611328
2226.481445	17182.990234
2225.546875	17161.285156
2224.612305	17142.263672
2223.677734	17203.488281
2222.742188	17160.396484
2221.807617	17387.367188
2220.872070	17138.414063
2219.937500	17178.210938
2219.001953	17153.857422
2218.066406	17113.478516
2217.129883	17073.115234
2216.194336	17144.945313
2215.257813	16845.548828
2214.321289	17136.335938
2213.384766	17109.341797
2212.448242	17234.494141
2211.511719	17132.769531
2210.575195	16846.972656
2209.637695	17014.787109
2208.700195	16894.478516
2207.762695	17014.224609
2206.825195	16693.982422
2205.887695	17050.982422
2204.949219	16970.730469
2204.011719	16794.566406
2203.073242	16562.509766
2202.134766	16927.275391
2201.196289	16932.332031
2200.257813	16679.064453
2199.318359	16729.425781
2198.379883	16513.550781
2197.440430	17027.062500
2196.500977	16710.082031
2195.561523	16752.417969
2194.621094	16850.605469
2193.681641	16845.023438
2192.741211	16586.798828
2191.801758	16610.511719
2190.861328	16509.265625
2189.920898	16620.699219
2188.979492	16593.898438
2188.039063	16410.335938
2187.097656	16574.859375
2186.156250	16479.015625
2185.214844	16489.435547
2184.273438	16667.134766
2183.332031	16624.419922
2182.390625	16510.052734
2181.448242	16422.263672
2180.505859	16475.136719
2179.563477	16437.789063
2178.621094	16464.115234
2177.678711	16373.739258
2176.735352	16323.169922
2175.792969	16309.732422
2174.849609	16399.673828
2173.906250	16341.173828
2172.962891	16468.173828
2172.019531	16629.572266
2171.075195	16613.441406
2170.130859	16237.136719
2169.187500	16422.318359
2168.243164	16305.627930
2167.298828	16130.742188
2166.353516	16384.654297
2165.409180	16225.691406
2164.463867	16294.304688
2163.518555	16259.733398
2162.573242	16399.722656
2161.627930	16343.990234
2160.682617	16288.276367
2159.736328	16105.701172
2158.791016	15952.260742
2157.844727	15896.642578
2156.898438	16097.309570
2155.952148	15967.722656
2155.004883	15914.768555
2154.058594	16088.920898
2153.111328	16178.529297
2152.164063	15924.952148
2151.216797	16040.947266
2150.269531	16075.102539
2149.322266	16172.562500
2148.374023	15950.814453
2147.426758	15650.021484
2146.478516	15895.168945
2145.530273	15897.678711
2144.582031	16024.078125
2143.632813	15994.937500
2142.684570	15913.105469
2141.735352	15997.280273
2140.786133	15923.376953
2139.836914	15939.043945
2138.887695	16086.366211
2137.938477	16041.445313
2136.988281	15862.291016
2136.039063	15849.004883
2135.088867	15764.675781
2134.138672	15590.922852
2133.187500	15554.015625
2132.237305	15745.931641
2131.286133	15638.009766
2130.335938	15653.693359
2129.384766	15808.689453
2128.433594	15627.221680
2127.482422	15632.386719
2126.530273	15690.093750
2125.579102	15414.174805
2124.626953	15569.074219
2123.674805	15744.926758
2122.722656	15450.761719
2121.770508	15479.573242
2120.817383	15319.407227
2119.865234	15487.305664
2118.912109	15437.384766
2117.958984	15439.944336
2117.005859	15321.857422
2116.052734	15285.101563
2115.098633	15434.504883
2114.145508	15429.196289
2113.191406	15274.499023
2112.237305	15135.577148
2111.283203	15355.639648
2110.329102	15111.969727
2109.374023	15305.767578
2108.418945	15407.846680
2107.464844	15122.403320
2106.509766	15342.273438
2105.554688	15308.194336
2104.598633	15064.785156
2103.643555	15276.699219
2102.687500	15077.847656
2101.731445	15328.916016
2100.775391	15334.090820
2099.819336	15127.488281
2098.863281	15017.676758
2097.906250	15130.058594
2096.950195	14866.108398
2095.993164	15412.180664
2095.036133	15090.803711
2094.079102	15033.326172
2093.121094	15176.940430
2092.164063	14907.987305
2091.206055	14908.000000
2090.248047	15038.508789
2089.290039	14941.945313
2088.332031	15103.709961
2087.374023	15111.511719
2086.415039	15046.282227
2085.456055	14730.738281
2084.498047	14759.456055
2083.538086	14874.187500
2082.579102	14819.467773
2081.620117	14952.387695
2080.660156	14803.877930
2079.700195	14845.580078
2078.741211	14725.789063
2077.780273	14811.757813
2076.820313	14731.067383
2075.860352	14715.481445
2074.899414	14746.750000
2073.938477	14697.336914
2072.977539	14468.419922
2072.016602	14616.771484
2071.055664	14653.234375
2070.094727	14804.101563
2069.132813	14694.919922
2068.170898	14689.756836
2067.208984	14720.980469
2066.247070	14461.151367
2065.285156	14427.450195
2064.322266	14380.771484
2063.360352	14479.553711
2062.397461	14477.026367
2061.434570	14542.002930
2060.471680	14347.370117
2059.507813	14503.186523
2058.544922	14163.309570
2057.581055	14202.348633
2056.617188	14264.720703
2055.653320	14319.289063
2054.689453	14739.472656
2053.724609	14417.996094
2052.760742	14415.478516
2051.795898	14324.839844
2050.831055	14293.833984
2049.866211	14058.157227
2048.901367	14296.612305
2047.935547	14283.754883
2046.970703	14338.229492
2046.004883	14084.583984
2045.039063	14322.866211
2044.073242	14079.663086
2043.107422	13945.229492
2042.140625	14113.552734
2041.174805	14253.362305
2040.208008	14067.239258
2039.241211	13922.555664
2038.274414	13912.366211
2037.306641	13845.309570
2036.339844	13850.643555
2035.372070	13835.301758
2034.404297	13946.564453
2033.436523	14055.204102
2032.468750	13859.041016
2031.500977	13766.238281
2030.532227	13825.795898
2029.564453	13936.959961
2028.595703	13836.447266
2027.626953	13828.867188
2026.657227	13867.729492
2025.688477	13537.696289
2024.718750	13615.282227
2023.750000	13847.561523
2022.780273	13584.737305
2021.810547	13641.650391
2020.839844	13592.873047
2019.870117	13549.264648
2018.899414	13523.707031
2017.928711	13529.069336
2016.958984	13539.580078
2015.987305	13529.485352
2015.016602	13447.304688
2014.045898	13398.617188
2013.074219	13506.942383
2012.102539	13463.406250
2011.130859	13437.895508
2010.159180	13301.779297
2009.187500	13479.486328
2008.214844	13492.556641
2007.242188	13305.081055
2006.269531	13433.851563
2005.296875	13377.527344
2004.324219	13285.246094
2003.351563	13295.766602
2002.377930	13311.419922
2001.404297	13298.816406
2000.430664	13278.512695
1999.457031	13260.783203
1998.483398	13286.697266
1997.509766	13094.447266
1996.535156	13079.324219
1995.560547	13179.658203
1994.585938	13228.654297
1993.611328	13182.736328
1992.636719	13147.091797
1991.661133	13244.778320
1990.685547	13168.120117
1989.710938	13173.501953
1988.735352	13255.755859
1987.758789	13189.382813
1986.783203	13010.322266
1985.806641	13195.005859
1984.831055	13172.208008
1983.854492	13062.369141
1982.877930	12960.248047
1981.901367	13085.944336
1980.923828	12973.618164
1979.946289	12815.278320
1978.969727	12790.009766
1977.992188	12910.530273
1977.014648	12867.353516
1976.036133	12888.108398
1975.058594	12714.582031
1974.080078	12766.024414
1973.101563	12914.549805
1972.123047	12769.212891
1971.144531	12820.616211
1970.166016	12787.720703
1969.186523	12627.159180
1968.208008	12688.771484
1967.228516	12671.230469
1966.249023	12594.995117
1965.268555	12493.268555
1964.289063	12544.653320
1963.308594	12588.368164
1962.329102	12586.160156
1961.348633	12612.000977
1960.367188	12617.436523
1959.386719	12513.260742
1958.406250	12488.127930
1957.424805	12434.973633
1956.443359	12700.300781
1955.461914	12402.589844
1954.480469	12433.521484
1953.499023	12492.452148
1952.516602	12457.163086
1951.534180	12342.975586
1950.552734	12427.339844
1949.569336	12376.811523
1948.586914	12206.725586
1947.604492	12458.951172
1946.621094	12347.404297
1945.637695	12223.182617
1944.655273	12287.137695
1943.670898	12323.108398
1942.687500	12143.042969
1941.704102	12377.223633
1940.719727	12151.480469
1939.735352	12207.769531
1938.750977	12291.973633
1937.766602	12399.000977
1936.782227	12211.492188
1935.796875	12128.121094
1934.811523	12118.376953
1933.826172	12159.383789
1932.840820	12207.987305
1931.855469	12172.867188
1930.870117	12130.151367
1929.883789	12122.948242
1928.897461	12148.705078
1927.911133	12047.714844
1926.924805	12076.008789
1925.938477	12002.938477
1924.951172	11967.893555
1923.964844	12084.840820
1922.977539	12049.792969
1921.990234	12009.693359
1921.002930	11898.721680
1920.014648	12126.968750
1919.027344	11967.929688
1918.039063	11849.431641
1917.050781	11842.288086
1916.062500	11931.264648
1915.074219	12045.500000
1914.084961	12000.396484
1913.096680	12021.038086
1912.107422	11872.321289
1911.118164	11731.237305
1910.128906	11734.227539
1909.138672	11575.532227
1908.149414	11717.469727
1907.159180	11717.934570
1906.168945	11708.297852
1905.178711	11627.977539
1904.188477	11524.967773
1903.198242	11651.645508
1902.207031	11639.502930
1901.215820	11586.999023
1900.224609	11607.661133
1899.233398	11484.568359
1898.242188	11565.753906
1897.250000	11568.760742
1896.258789	11619.655273
1895.266602	11358.041016
1894.274414	11479.503906
1893.282227	11532.905273
1892.289063	11452.792969
1891.296875	11506.179688
1890.303711	11370.707031
1889.310547	11431.640625
1888.317383	11417.041992
1887.324219	11261.522461
1886.330078	11400.441406
1885.336914	11257.556641
1884.342773	11248.028320
1883.348633	11334.063477
1882.354492	11289.324219
1881.359375	11299.904297
1880.365234	11114.432617
1879.370117	11077.292969
1878.375000	11336.646484
1877.379883	11362.282227
1876.384766	11222.138672
1875.389648	11112.178711
1874.393555	11183.033203
1873.397461	10965.172852
1872.401367	11259.409180
1871.405273	11222.291992
1870.409180	10999.520508
1869.412109	10761.776367
1868.416016	10990.626953
1867.418945	11171.750977
1866.421875	10931.592773
1865.423828	10751.682617
1864.426758	10920.219727
1863.428711	10853.140625
1862.431641	10948.940430
1861.433594	11019.656250
1860.435547	10967.621094
1859.436523	10797.908203
1858.438477	10728.403320
1857.439453	10706.485352
1856.440430	10687.077148
1855.441406	10882.880859
1854.442383	10783.384766
1853.443359	10651.404297
1852.443359	10657.028320
1851.443359	10717.664063
1850.444336	10635.767578
1849.443359	10773.875977
1848.443359	10542.040039
1847.443359	10637.634766
1846.442383	10588.288086
1845.441406	10691.333984
1844.440430	10564.570313
1843.439453	10485.295898
1842.438477	10383.579102
1841.436523	10409.205078
1840.434570	10614.516602
1839.432617	10398.043945
1838.430664	10411.177734
1837.428711	10531.567383
1836.426758	10457.381836
1835.423828	10370.753906
1834.420898	10468.648438
1833.417969	10461.814453
1832.415039	10597.040039
1831.412109	10465.594727
1830.408203	10391.497070
1829.404297	10549.081055
1828.400391	10158.701172
1827.396484	10358.600586
1826.392578	10297.020508
1825.388672	10285.244141
1824.383789	10188.855469
1823.378906	10216.915039
1822.374023	10227.548828
1821.369141	10083.959961
1820.364258	10159.273438
1819.358398	10067.963867
1818.352539	10337.167969
1817.346680	10186.202148
1816.340820	10179.431641
1815.334961	10252.175781
1814.329102	10011.867188
1813.322266	10198.873047
1812.315430	10035.645508
1811.308594	10083.532227
1810.301758	9895.555664
1809.294922	9960.824219
1808.287109	10070.739258
1807.279297	10111.139648
1806.271484	9953.060547
1805.263672	9804.958008
1804.255859	10085.937500
1803.247070	10046.960938
1802.239258	9908.834961
1801.230469	10088.022461
1800.221680	9959.850586
1799.212891	10002.687500
1798.203125	9991.008789
1797.194336	10014.010742
1796.184570	10027.097656
1795.174805	9750.487305
1794.165039	9805.700195
1793.155273	9734.661133
1792.144531	9703.242188
1791.134766	9874.722656
1790.124023	9818.550781
1789.113281	9675.831055
1788.102539	9758.198242
1787.090820	9657.571289
1786.080078	9668.221680
1785.068359	9837.052734
1784.056641	9729.049805
1783.044922	9752.035156
1782.032227	9619.381836
1781.020508	9637.437500
1780.007813	9477.687500
1778.995117	9495.760742
1777.982422	9607.632813
1776.969727	9317.161133
1775.957031	9628.907227
1774.943359	9760.433594
1773.929688	9635.364258
1772.916016	9658.321289
1771.902344	9506.187500
1770.888672	9371.367188
1769.874023	9426.403320
1768.860352	9323.683594
1767.845703	9366.386719
1766.831055	9436.175781
1765.816406	9459.136719
1764.800781	9275.207031
1763.786133	9273.563477
1762.770508	9414.716797
1761.754883	9430.279297
1760.739258	9202.183594
1759.722656	9343.272461
1758.707031	9378.520508
1757.690430	9381.777344
1756.673828	9148.931641
1755.657227	9127.637695
1754.640625	9226.818359
1753.623047	9183.395508
1752.606445	9014.646484
1751.588867	9280.884766
1750.571289	9114.634766
1749.552734	9211.271484
1748.535156	9072.107422
1747.517578	9070.498047
1746.499023	9090.984375
1745.480469	9084.462891
1744.461914	8911.060547
1743.442383	8884.942383
1742.423828	9089.442383
1741.404297	9146.698242
1740.384766	9108.289063
1739.365234	9106.672852
1738.345703	8901.578125
1737.326172	8865.682617
1736.305664	8940.080078
1735.285156	8985.048828
1734.264648	8875.662109
1733.244141	8732.022461
1732.223633	8850.470703
1731.202148	8824.415039
1730.180664	8675.963867
1729.160156	8757.643555
1728.137695	8836.845703
1727.116211	8903.786133
1726.094727	8924.222656
1725.072266	8797.897461
1724.049805	8747.425781
1723.027344	8775.211914
1722.004883	8802.989258
1720.982422	8657.219727
1719.958984	8731.437500
1718.935547	8656.587891
1717.912109	8706.350586
1716.888672	8765.864258
1715.865234	8654.417969
1714.840820	8633.347656
1713.817383	8658.666016
1712.792969	8622.958008
1711.768555	8536.016602
1710.743164	8583.295898
1709.718750	8647.634766
1708.693359	8536.344727
1707.668945	8473.864258
1706.643555	8455.291016
1705.617188	8536.668945
1704.591797	8352.359375
1703.565430	8338.691406
1702.540039	8417.608398
1701.513672	8491.625000
1700.487305	8295.276367
1699.459961	8318.152344
1698.433594	8316.672852
1697.406250	8451.508789
1696.378906	8289.377930
1695.351563	8214.904297
1694.324219	8155.053223
1693.296875	8248.468750
1692.268555	8188.632813
1691.240234	8209.060547
1690.211914	8217.325195
1689.183594	8228.016602
1688.155273	8158.504883
1687.125977	8166.772461
1686.096680	8092.436523
1685.067383	8219.733398
1684.038086	8040.985352
1683.008789	8105.114258
1681.978516	8222.628906
1680.949219	8184.756836
1679.918945	8074.092285
1678.888672	8121.183105
1677.858398	7942.641602
1676.827148	7992.164063
1675.795898	7985.891113
1674.765625	7950.523926
1673.734375	8038.805176
1672.702148	7889.521484
1671.670898	7922.043945
1670.639648	7978.784180
1669.607422	7989.475586
1668.575195	7908.124023
1667.542969	7872.812500
1666.509766	7982.786621
1665.477539	7690.869141
1664.444336	7844.402344
1663.411133	7978.521484
1662.377930	7856.125000
1661.344727	7791.829590
1660.311523	7904.117188
1659.277344	7805.980469
1658.243164	7908.554199
1657.208984	7824.955078
1656.174805	7685.796387
1655.140625	7740.005859
1654.105469	7699.969727
1653.070313	7763.819336
1652.035156	7769.680664
1651.000000	7797.272949
1649.964844	7634.123047
1648.928711	7584.483887
1647.893555	7662.776367
1646.857422	7721.736328
1645.821289	7655.218750
1644.784180	7634.556152
1643.748047	7613.900879
1642.710938	7446.162109
1641.673828	7587.076660
1640.636719	7402.528320
1639.599609	7350.597656
1638.562500	7510.729980
1637.524414	7576.846680
1636.486328	7409.291992
1635.448242	7441.686523
1634.410156	7375.346191
1633.372070	7609.960938
1632.333008	7382.342773
1631.293945	7501.354980
1630.254883	7473.548828
1629.215820	7414.477539
1628.176758	7478.097656
1627.136719	7361.329102
1626.097656	7273.455078
1625.057617	7240.904297
1624.017578	7237.208496
1622.977539	7344.058594
1621.936523	7515.744141
1620.895508	7331.827637
1619.855469	7390.565430
1618.814453	7434.873047
1617.772461	7409.535645
1616.731445	7316.990234
1615.689453	7308.482910
1614.648438	7393.567871
1613.606445	7339.462891
1612.563477	7239.798340
1611.521484	7221.715820
1610.479492	7218.027832
1609.436523	7209.545898
1608.393555	7244.215332
1607.350586	7259.698242
1606.306641	7253.608398
1605.263672	7269.083496
1604.219727	7128.849121
1603.175781	7077.279785
1602.131836	7157.431152
1601.087891	7079.538574
1600.043945	6886.774902
1598.999023	7009.995605
1597.954102	6968.063965
1596.909180	7026.629395
1595.864258	7054.077637
1594.818359	7126.956055
1593.773438	6850.697754
1592.727539	6859.035645
1591.681641	6893.664063
1590.635742	7035.824707
1589.588867	7058.460938
1588.542969	6870.854492
1587.496094	6931.729492
1586.449219	6796.751953
1585.402344	6821.801270
1584.355469	6882.651367
1583.307617	6874.259766
1582.259766	6918.373047
1581.212891	6809.763184
1580.164063	6846.714844
1579.116211	6754.852539
1578.068359	6808.493652
1577.019531	6747.666992
1575.970703	6763.146973
1574.921875	6666.597168
1573.873047	6836.984375
1572.823242	6699.950684
1571.774414	6663.018555
1570.724609	6747.569824
1569.674805	6562.998047
1568.625000	6592.775391
1567.574219	6682.053711
1566.524414	6685.617676
1565.473633	6684.420898
1564.422852	6671.327637
1563.372070	6653.481445
1562.320313	6599.966309
1561.269531	6579.760742
1560.217773	6595.225098
1559.166016	6477.566406
1558.114258	6514.432617
1557.062500	6598.810547
1556.009766	6474.086426
1554.957031	6558.440430
1553.904297	6509.766113
1552.851563	6491.978027
1551.798828	6445.707031
1550.746094	6456.420410
1549.692383	6528.834473
1548.638672	6368.684570
1547.584961	6379.405273
1546.531250	6404.354004
1545.476563	6453.008789
1544.422852	6449.480957
1543.368164	6384.315918
1542.313477	6421.096191
1541.257813	6379.657227
1540.203125	6267.150391
1539.147461	6284.978516
1538.092773	6219.899902
1537.037109	6327.720215
1535.980469	6305.275879
1534.924805	6292.308594
1533.868164	6364.553711
1532.812500	6190.660645
1531.755859	6260.531250
1530.698242	6422.635742
1529.641602	6229.903320
1528.584961	6200.408691
1527.527344	6303.327148
1526.469727	6290.376953
1525.412109	6308.156250
1524.353516	6141.609863
1523.295898	6166.496582
1522.237305	6252.792480
1521.178711	6069.812012
1520.120117	6255.270996
1519.061523	6150.266602
1518.001953	6186.931152
1516.943359	6103.217285
1515.883789	6059.647461
1514.824219	6129.337402
1513.763672	5951.324707
1512.704102	6006.857910
1511.643555	6111.888672
1510.583008	6176.802734
1509.522461	6128.551270
1508.461914	6132.164063
1507.400391	6175.832031
1506.339844	6120.538086
1505.278320	6098.239746
1504.216797	6146.600098
1503.155273	6114.886230
1502.092773	6186.767090
1501.031250	6084.444336
1499.968750	6236.317871
1498.906250	6214.020996
1497.843750	6114.100586
1496.780273	6065.960449
1495.717773	6241.243164
1494.654297	6143.722168
1493.590820	6147.319336
1492.527344	6190.871582
1491.462891	6283.756836
1490.399414	6254.433105
1489.334961	6227.468750
1488.270508	6212.257324
1487.206055	6267.498535
1486.140625	6456.546387
1485.076172	6549.282227
1484.010742	6449.531250
1482.945313	6539.887695
1481.879883	6580.942383
1480.814453	6690.007813
1479.748047	6749.782715
1478.681641	6769.672363
1477.615234	6892.711426
1476.548828	7116.499023
1475.482422	7152.716797
1474.415039	7308.424316
1473.348633	7503.902344
1472.281250	7643.093262
1471.213867	7836.098633
1470.145508	7907.275391
1469.078125	8189.124023
1468.009766	8405.332031
1466.941406	8490.409180
1465.873047	8647.989258
1464.804688	8639.414063
1463.735352	8752.468750
1462.666992	8631.626953
1461.597656	8756.333008
1460.528320	8778.133789
1459.458008	8879.394531
1458.388672	8545.958984
1457.318359	8663.580078
1456.248047	8479.809570
1455.177734	8459.597656
1454.107422	8313.291992
1453.037109	8047.965332
1451.965820	7822.417969
1450.894531	7496.592285
1449.823242	7394.900879
1448.751953	7078.601563
1447.679688	6935.033203
1446.608398	6768.194336
1445.536133	6571.101074
1444.463867	6621.208008
1443.390625	6379.922852
1442.318359	6364.790039
1441.245117	6156.259277
1440.171875	6197.085449
1439.098633	5981.671875
1438.025391	6092.380371
1436.952148	5984.172852
1435.877930	5913.252441
1434.803711	5947.101074
1433.729492	5822.686523
1432.655273	5723.911621
1431.581055	5788.018066
1430.505859	5819.537598
1429.430664	5858.022461
1428.355469	5898.818359
1427.280273	5923.326172
1426.205078	5792.098633
1425.128906	5816.616211
1424.052734	5773.745117
1422.976563	5693.721191
1421.900391	5746.113770
1420.823242	5819.387207
1419.747070	5853.163574
1418.669922	5863.714355
1417.592773	5786.065918
1416.515625	5778.060547
1415.437500	5709.735352
1414.360352	5699.426270
1413.282227	5716.951660
1412.204102	5734.470703
1411.125977	5603.604492
1410.046875	5716.174805
1408.968750	5789.305664
1407.889648	5702.525391
1406.810547	5761.731445
1405.731445	5811.650391
1404.651367	5840.707520
1403.572266	5689.146484
1402.492188	5792.297363
1401.412109	5677.833496
1400.332031	5704.579102
1399.250977	5853.946777
1398.170898	5818.188477
1397.089844	5731.557617
1396.008789	5691.208496
1394.927734	5625.440430
1393.845703	5575.878418
1392.764648	5688.125000
1391.682617	5751.802246
1390.600586	5699.932617
1389.518555	5629.601074
1388.435547	5591.629395
1387.353516	5613.711426
1386.270508	5557.285645
1385.187500	5611.682617
1384.104492	5548.353027
1383.020508	5605.039063
1381.937500	5534.812012
1380.853516	5540.731445
1379.769531	5509.748047
1378.685547	5388.845703
1377.600586	5493.922852
1376.516602	5430.693359
1375.431641	5305.261230
1374.346680	5539.332031
1373.261719	5367.849121
1372.175781	5472.833984
1371.090820	5474.146973
1370.004883	5445.526367
1368.918945	5281.089844
1367.833008	5307.754883
1366.746094	5382.737793
1365.660156	5416.277344
1364.573242	5401.494629
1363.486328	5398.217285
1362.399414	5388.041992
1361.311523	5370.972168
1360.224609	5372.299316
1359.136719	5304.673828
1358.048828	5306.011719
1356.959961	5261.397949
1355.872070	5207.611328
1354.783203	5291.647461
1353.695313	5217.207520
1352.606445	5314.986328
1351.516602	5075.294434
1350.427734	5124.867188
1349.337891	5257.028320
1348.248047	5210.191895
1347.158203	5131.258789
1346.068359	5139.502930
1344.978516	5209.654785
1343.887695	5165.152344
1342.796875	5134.418945
1341.706055	5009.734863
1340.615234	5196.715820
1339.523438	5220.974609
1338.432617	5151.313965
1337.340820	5102.289063
1336.249023	5002.909180
1335.156250	5093.572266
1334.064453	5065.183105
1332.971680	5089.437988
1331.878906	4958.099609
1330.786133	5025.828613
1329.693359	5036.353516
1328.600586	5021.719727
1327.506836	4917.924316
1326.413086	4923.890625
1325.319336	4904.713379
1324.225586	4906.109375
1323.130859	4786.416016
1322.036133	4828.949707
1320.941406	4946.834473
1319.846680	4897.984863
1318.751953	4972.436523
1317.657227	4898.491211
1316.561523	4988.890625
1315.465820	4821.415527
1314.370117	4829.666016
1313.273438	4858.442383
1312.177734	4898.610840
1311.081055	4824.757813
1309.984375	4755.491211
1308.887695	4779.700684
1307.791016	4881.383301
1306.693359	4914.674316
1305.595703	4993.514648
1304.498047	4874.170898
1303.400391	4891.503906
1302.302734	4945.259766
1301.204102	4998.996094
1300.105469	5014.020508
1299.007813	5004.007813
1297.908203	5046.327637
1296.809570	5193.270508
1295.709961	5210.522461
1294.611328	5252.780762
1293.511719	5379.144043
1292.411133	5382.713379
1291.311523	5434.007813
1290.210938	5310.317383
1289.110352	5397.956055
1288.009766	5392.432617
1286.909180	5443.687012
1285.808594	5504.004883
1284.707031	5450.790039
1283.605469	5449.799316
1282.503906	5555.470703
1281.402344	5563.537109
1280.299805	5505.812012
1279.198242	5427.693848
1278.095703	5526.488281
1276.993164	5427.988770
1275.890625	5544.881836
1274.787109	5666.265137
1273.683594	5604.050781
1272.580078	5639.282715
1271.476563	5536.320313
1270.373047	5537.578613
1269.269531	5538.835938
1268.165039	5585.373535
1267.060547	5575.303223
1265.956055	5655.765137
1264.850586	5530.282715
1263.746094	5579.049316
1262.640625	5460.411621
1261.535156	5346.340332
1260.429688	5379.284668
1259.324219	5360.220215
1258.217773	5194.240723
1257.111328	5206.855469
1256.004883	5031.925781
1254.898438	5166.556152
1253.791992	5086.562012
1252.684570	4916.265625
1251.577148	4904.081543
1250.469727	4819.663086
1249.362305	4841.356445
1248.254883	4813.395508
1247.146484	4656.839844
1246.038086	4678.550293
1244.929688	4700.252441
1243.821289	4627.237305
1242.711914	4549.738770
1241.603516	4636.822754
1240.494141	4539.066895
1239.384766	4504.440430
1238.274414	4485.596191
1237.165039	4498.294434
1236.054688	4389.373535
1234.944336	4354.798340
1233.833984	4369.764160
1232.723633	4256.423828
1231.612305	4242.145508
1230.500977	4259.373047
1229.389648	4247.349121
1228.278320	4311.803223
1227.166992	4232.308105
1226.054688	4350.703125
1224.943359	4354.406250
1223.831055	4218.756348
1222.717773	4251.695313
1221.605469	4230.699219
1220.492188	4331.015137
1219.379883	4231.402832
1218.266602	4358.628418
1217.152344	4283.743652
1216.039063	4377.241699
1214.924805	4239.539551
1213.810547	4256.717773
1212.696289	4262.671875
1211.582031	4306.756348
1210.467773	4366.523926
1209.352539	4193.071289
1208.237305	4261.804688
1207.122070	4182.576172
1206.006836	4114.581055
1204.890625	4160.884277
1203.774414	4059.314209
1202.658203	4040.654785
1201.541992	4116.058105
1200.425781	3949.619873
1199.308594	3991.432373
1198.191406	3939.225586
1197.074219	3851.232910
1195.957031	3971.348389
1194.839844	3905.751221
1193.721680	3873.726318
1192.603516	3855.129883
1191.485352	3733.695801
1190.367188	3802.309570
1189.249023	3770.326416
1188.129883	3758.465332
1187.010742	3614.795654
1185.891602	3739.222900
1184.772461	3698.340820
1183.652344	3677.569336
1182.533203	3661.270264
1181.413086	3582.478760
1180.292969	3599.677734
1179.171875	3605.713867
1178.051758	3569.361328
1176.930664	3559.787598
1175.809570	3561.367188
1174.688477	3522.812744
1173.566406	3461.979980
1172.445313	3476.948975
1171.323242	3369.350098
1170.201172	3500.186035
1169.079102	3481.725586
1167.956055	3407.592041
1166.833984	3422.556641
1165.710938	3297.254150
1164.587891	3249.906006
1163.464844	3340.559570
1162.340820	3264.293701
1161.216797	3254.797852
1160.092773	3249.753906
1158.968750	3135.739258
1157.844727	3075.130615
1156.719727	3150.154297
1155.595703	3138.464355
1154.470703	3162.335693
1153.345703	3072.881348
1152.219727	3123.413330
1151.094727	3082.862549
1149.968750	3037.885010
1148.842773	3119.479004
1147.716797	3067.851318
1146.589844	3120.556885
1145.462891	3040.099854
1144.336914	2977.421387
1143.209961	2921.420410
1142.082031	2898.707520
1140.955078	3044.527100
1139.827148	2919.816406
1138.699219	2972.480713
1137.571289	2974.152588
1136.443359	2935.939453
1135.314453	2990.786865
1134.185547	2926.004395
1133.056641	2976.404053
1131.927734	2927.146973
1130.798828	2944.321045
1129.668945	2824.259766
1128.539063	2863.575684
1127.409180	2854.200928
1126.279297	2866.950928
1125.149414	2886.331543
1124.018555	2815.039795
1122.887695	2838.844238
1121.756836	2778.639648
1120.625977	2764.869629
1119.494141	2835.074219
1118.362305	2856.647705
1117.231445	2856.124023
1116.098633	2904.187744
1114.966797	2855.077148
1113.833984	2989.223389
1112.702148	2959.980469
1111.569336	3014.610107
1110.435547	3022.883301
1109.302734	3075.274902
1108.168945	3149.704102
1107.036133	3274.826904
1105.901367	3346.986816
1104.767578	3370.622070
1103.633789	3577.185303
1102.499023	3686.711670
1101.364258	3899.750732
1100.229492	4216.245117
1099.094727	4497.383789
1097.958984	4701.348145
1096.823242	4814.970215
1095.687500	5047.416992
1094.551758	5363.409668
1093.416016	5362.425293
1092.279297	5427.441895
1091.142578	5510.030762
1090.005859	5487.027344
1088.869141	5468.429688
1087.731445	5467.426270
1086.594727	5356.522461
1085.457031	5065.456543
1084.319336	4919.511719
1083.180664	4936.182617
1082.042969	4588.247559
1080.904297	4521.525879
1079.765625	4397.743164
1078.626953	4342.056152
1077.487305	4161.287109
1076.348633	4068.359375
1075.208984	4010.568848
1074.069336	3941.831787
1072.929688	4041.992920
1071.789063	4019.322754
1070.648438	4040.507813
1069.508789	4101.140137
1068.367188	4106.960938
1067.226563	4176.323242
1066.085938	4326.716797
1064.944336	4166.026855
1063.802734	4171.831055
1062.661133	4057.208252
1061.518555	4047.705811
1060.376953	4046.961670
1059.234375	3936.801270
1058.091797	3933.889648
1056.948242	3937.541504
1055.805664	3799.028809
1054.662109	3745.848877
1053.518555	3802.004395
1052.375000	3851.581055
1051.231445	3831.203125
1050.086914	3760.574951
1048.942383	3803.577393
1047.797852	3761.375977
1046.653320	3767.235596
1045.508789	3727.239502
1044.363281	3761.483398
1043.217773	3826.272217
1042.072266	3810.291992
1040.926758	3728.860840
1039.780273	3728.174561
1038.634766	3710.039551
1037.488281	3672.285156
1036.341797	3819.868896
1035.194336	3655.674072
1034.047852	3692.052490
1032.900391	3737.133545
1031.752930	3747.338867
1030.605469	3676.943848
1029.457031	3597.863037
1028.308594	3503.568848
1027.161133	3563.881836
1026.011719	3413.034668
1024.863281	3357.999023
1023.714844	3200.717285
1022.565430	3069.599121
1021.416016	3142.986084
1020.266602	3098.913574
1019.116211	2865.695313
1017.966797	2710.822266
1016.816406	2682.067627
1015.666016	2525.112061
1014.514648	2509.437988
1013.364258	2376.466797
1012.212891	2265.263428
1011.061523	2284.389160
1009.910156	2177.585449
1008.758789	2218.426758
1007.606445	2150.739502
1006.454102	2033.169922
1005.301758	2069.676025
1004.149414	2077.970703
1002.997070	2023.370850
1001.843750	1968.790894
1000.690430	1979.267212
999.537109	1926.882813
998.383789	1861.515259
997.229492	1956.505615
996.076172	1917.151733
994.921875	1916.798096
993.766602	1853.645752
992.612305	1790.516602
991.457031	1816.162354
990.302734	1794.184570
989.146484	1707.298462
987.991211	1750.252930
986.835938	1747.766846
985.679688	1762.583008
984.523438	1805.503296
983.367188	1781.389404
982.210938	1774.576050
981.053711	1785.053955
979.896484	1771.760254
978.739258	1730.387817
977.582031	1669.591431
976.423828	1712.472900
975.266602	1679.770386
974.108398	1824.092407
972.950195	1700.732910
971.791016	1743.576660
970.632813	1779.932007
969.473633	1704.104980
968.314453	1759.864258
967.155273	1658.193115
965.995117	1692.381226
964.835938	1713.623535
963.675781	1702.531372
962.515625	1697.907349
961.354492	1697.593628
960.194336	1621.893066
959.033203	1696.966187
957.872070	1672.968384
956.710938	1653.284668
955.548828	1644.369873
954.387695	1659.129272
953.225586	1656.671021
952.063477	1611.191162
950.901367	1587.235229
949.738281	1610.595459
948.575195	1580.198608
947.412109	1547.663330
946.249023	1633.342529
945.085938	1643.784180
943.921875	1621.996704
942.757813	1673.247314
941.593750	1632.134399
940.429688	1610.360962
939.265625	1610.063110
938.100586	1717.082886
936.935547	1620.197144
935.770508	1649.935181
934.604492	1630.323364
933.439453	1634.311157
932.273438	1599.698853
931.107422	1547.947388
929.941406	1609.824585
928.774414	1658.819702
927.607422	1662.798096
926.440430	1587.506836
925.273438	1675.034424
924.106445	1638.317261
922.938477	1599.472412
921.771484	1629.147339
920.602539	1626.705322
919.434570	1628.544067
918.266602	1608.985962
917.097656	1642.915283
915.928711	1717.469604
914.759766	1712.874512
913.590820	1667.658691
912.420898	1611.771484
911.250977	1585.826050
910.081055	1658.184570
908.911133	1681.378174
907.740234	1704.563110
906.570313	1618.821289
905.399414	1697.525635
904.228516	1714.289795
903.056641	1718.240967
901.885742	1773.408081
900.713867	1852.025146
899.541992	1877.281128
898.370117	1887.597412
897.197266	1974.679199
896.024414	2095.842041
894.852539	2202.038086
893.678711	2210.154785
892.505859	2384.478760
891.332031	2473.517822
890.159180	2530.572021
888.985352	2653.626221
887.810547	2927.816406
886.636719	2989.011963
885.461914	3160.868408
884.287109	3211.357178
883.112305	3342.681396
881.937500	3527.140137
880.761719	3707.276611
879.585938	3791.650879
878.410156	3995.058594
877.234375	4187.761719
876.057617	4467.533691
874.881836	4762.076660
873.705078	5071.381836
872.528320	5620.604980
871.350586	6156.881836
870.173828	6735.426758
868.996094	7211.852539
867.818359	7630.790527
866.639648	7990.150391
865.461914	8294.208984
864.283203	8415.711914
863.104492	8522.321289
861.925781	8385.016602
860.747070	8114.187988
859.567383	7650.552246
858.387695	7246.433105
857.208008	6613.604980
856.028320	6163.217773
854.847656	5647.330566
853.666992	5042.684082
852.486328	4645.775879
851.305664	4187.619141
850.125000	3843.934814
848.943359	3434.772461
847.761719	3173.875977
846.580078	2807.300293
845.398438	2665.064697
844.215820	2457.324951
843.034180	2287.720459
841.851563	2147.774170
840.667969	2031.129150
839.485352	1977.922241
838.301758	1907.832886
837.118164	1829.319946
835.934570	1761.396118
834.750977	1663.935181
833.566406	1691.071289
832.381836	1640.097290
831.197266	1652.454590
830.012695	1521.325806
828.828125	1559.015991
827.642578	1533.415039
826.457031	1503.605835
825.271484	1526.518921
824.084961	1469.317261
822.899414	1426.890381
821.712891	1521.452148
820.526367	1396.862793
819.339844	1438.732544
818.152344	1474.268311
816.964844	1385.554199
815.777344	1412.665283
814.589844	1454.500610
813.402344	1361.630493
812.213867	1447.646484
811.025391	1436.858154
809.836914	1411.350220
808.648438	1394.263672
807.458984	1410.824463
806.269531	1345.394043
805.080078	1446.029175
803.890625	1386.920654
802.701172	1371.955200
801.510742	1436.818481
800.320313	1440.751221
799.129883	1291.394775
797.939453	1347.838867
796.748047	1316.101929
795.556641	1383.013550
794.365234	1336.593994
793.173828	1357.323486
791.981445	1289.951050
790.790039	1304.390137
789.597656	1352.370972
788.404297	1261.977539
787.211914	1278.509521
786.018555	1301.321899
784.825195	1305.269409
783.631836	1267.320557
782.438477	1248.234985
781.244141	1231.250366
780.050781	1251.956421
778.856445	1274.747803
777.661133	1261.953247
776.466797	1192.668579
775.271484	1299.138550
774.076172	1238.239136
772.880859	1271.467651
771.685547	1208.505127
770.489258	1279.354858
769.292969	1289.566284
768.096680	1264.249512
766.900391	1232.674316
765.703125	1267.955322
764.506836	1286.515015
763.309570	1204.838623
762.111328	1164.947021
760.914063	1254.484497
759.715820	1216.685303
758.517578	1187.246460
757.319336	1232.920166
756.121094	1266.062134
754.921875	1155.300537
753.722656	1184.274536
752.523438	1213.237671
751.324219	1271.368896
750.125000	1202.365234
748.924805	1193.806763
747.724609	1176.919312
746.524414	1178.782104
745.323242	1149.410034
744.123047	1222.060791
742.921875	1184.365601
741.720703	1219.522949
740.518555	1227.617676
739.317383	1179.540894
738.115234	1127.322021
736.913086	1158.304443
735.710938	1214.224854
734.507813	1182.816406
733.304688	1228.319458
732.101563	1132.502319
730.898438	1194.618408
729.695313	1206.858154
728.491211	1175.480103
727.287109	1169.030884
726.083008	1212.409058
724.878906	1168.593506
723.673828	1114.417969
722.468750	1178.530640
721.263672	1157.565186
720.058594	1149.052124
718.853516	1171.647827
717.647461	1123.742065
716.441406	1146.334106
715.235352	1218.658691
714.028320	1166.626465
712.822266	1160.192749
711.615234	1147.547241
710.408203	1136.977295
709.200195	1107.775879
707.993164	1122.060059
706.785156	1068.034180
705.577148	1125.778687
704.369141	1162.810791
703.160156	1172.936401
701.951172	1172.716675
700.742188	1089.781128
699.533203	1083.374390
698.324219	1126.580933
697.114258	1128.436523
695.904297	1150.954956
694.694336	1078.430664
693.484375	1105.080933
692.273438	1092.482788
691.062500	1112.925903
689.851563	1120.974976
688.640625	1089.804443
687.428711	1182.463867
686.217773	1122.407837
685.005859	1167.580444
683.792969	1183.861328
682.581055	1134.149170
681.368164	1199.910889
680.155273	1051.271118
678.942383	1160.303223
677.729492	1081.784912
676.515625	1120.724976
675.301758	1126.694092
674.087891	1116.185791
672.874023	1045.970459
671.659180	1150.763306
670.444336	1088.800659
669.229492	1123.579590
668.014648	1108.966553
666.799805	1114.929688
665.583984	1096.210205
664.368164	1058.991211
663.152344	1099.910522
661.935547	1077.093384
660.719727	1062.505249
659.502930	1109.564941
658.286133	1142.226440
657.068359	1094.770508
655.851563	1119.208008
654.633789	1057.401611
653.416016	1020.252197
652.198242	1118.577515
650.979492	1101.951050
649.760742	1064.814087
648.541992	1101.536987
647.323242	1039.803223
646.103516	1051.910889
644.884766	1051.713257
643.665039	1100.709351
642.445313	1088.206421
641.224609	1055.218384
640.004883	1091.894531
638.784180	1077.351929
637.563477	1120.153564
636.341797	1083.089233
635.121094	1062.415283
633.899414	1103.148682
632.677734	1100.895020
631.456055	1063.861938
630.233398	1030.933838
629.010742	1065.506958
627.788086	1067.351318
626.565430	1007.864441
625.342773	1046.510254
624.119141	1062.661987
622.895508	1060.418945
621.671875	1041.834106
620.447266	1094.741211
619.223633	1116.997803
617.999023	1092.287720
616.774414	1063.504272
615.548828	1067.385864
614.324219	1059.022949
613.098633	1144.508789
611.873047	1011.710388
610.647461	1050.267700
609.420898	1076.576660
608.194336	1076.373901
606.967773	1045.598267
605.741211	1067.817383
604.514648	998.343506
603.287109	1016.488953
602.059570	977.600830
600.832031	1067.013306
599.603516	1007.771179
598.375977	1013.687866
597.147461	1056.234741
595.918945	1092.661255
594.689453	1055.836792
593.460938	1108.521484
592.231445	1043.237427
591.001953	1026.775024
589.771484	1036.745728
588.541992	1071.102051
587.311523	1101.381226
586.081055	1054.444824
584.850586	1048.152222
583.619141	1076.387451
582.387695	1009.176880
581.156250	992.745361
579.924805	1049.391846
578.693359	1022.811890
577.460938	1026.677002
576.228516	959.538879
574.996094	1034.402832
573.762695	997.706238
572.530273	1025.902710
571.296875	1052.061401
570.063477	1043.756104
568.829102	1015.190613
567.595703	1043.362305
566.361328	1105.958008
565.126953	1123.975952
563.891602	1050.871094
562.657227	1044.599487
561.421875	1066.666748
560.186523	1038.134277
558.951172	1009.612549
557.714844	1037.742432
556.479492	1071.929199
555.243164	1045.439087
554.005859	1087.698364
552.769531	1026.852173
551.532227	1087.287720
550.294922	1085.061768
549.057617	1088.897339
547.820313	1133.128052
546.582031	1064.252563
545.343750	1114.528320
544.105469	1084.037476
542.866211	1116.125610
541.627930	1097.753418
540.388672	1152.019775
539.149414	1143.733521
537.910156	1193.937012
536.669922	1165.481689
535.429688	1175.341553
534.189453	1187.213257
532.949219	1241.401001
531.708008	1233.106812
530.466797	1287.265137
529.225586	1264.866577
527.984375	1292.819702
526.743164	1346.935913
525.500977	1360.772095
524.258789	1354.476929
523.016602	1348.184204
521.773438	1323.787231
520.530273	1319.513916
519.287109	1315.242188
518.043945	1284.833008
516.800781	1272.528076
515.556641	1183.850342
514.312500	1245.922485
513.068359	1279.842651
511.824219	1237.415894
510.579102	1176.929321
509.333984	1166.666504
508.088867	1134.323242
506.843750	1144.144897
505.597656	1222.197144
504.351563	1165.783447
503.105469	1129.452393
501.859375	1171.359375
500.612305	1133.035522
499.365234	1150.865845
498.118164	1186.730957
496.871094	1190.514771
495.624023	1150.212158
494.375977	1174.036011
493.127930	1296.002441
491.879883	1283.740723
490.630859	1359.586304
489.381836	1431.399170
488.132813	1529.205322
486.883789	1520.910767
485.634766	1608.658691
484.384766	1692.372314
483.134766	1780.054321
481.884766	1841.707031
480.633789	1811.368530
479.383789	1789.036987
478.132813	1918.603271
476.880859	1828.322144
475.629883	1718.097168
474.377930	1613.906250
473.125977	1555.686401
471.874023	1415.625732
470.622070	1323.528809
469.369141	1255.417358
468.116211	1211.277954
466.863281	1167.155151
465.610352	1154.965210
464.356445	1090.926025
463.102539	1070.779053
461.848633	1044.658813
460.594727	958.751038
459.339844	1028.319458
458.085938	1000.229492
456.831055	1017.968689
455.575195	1019.767212
454.320313	967.798462
453.064453	957.659851
451.808594	973.402893
450.552734	959.286560
449.295898	963.084106
448.039063	960.911804
446.782227	930.893066
445.525391	940.659851
444.267578	934.516235
443.010742	990.001526
441.752930	950.061951
440.494141	945.907104
439.236328	985.463867
437.977539	973.358032
436.718750	995.019836
435.459961	994.830811
434.201172	875.523010
432.941406	924.980042
431.681641	924.804321
430.421875	837.324585
429.161133	968.096558
427.901367	882.625183
426.640625	876.508240
425.378906	894.185730
424.118164	878.157349
422.856445	881.954224
421.594727	933.306702
420.333008	901.430603
419.071289	861.643372
417.808594	928.813599
416.545898	892.996277
415.283203	916.582397
414.020508	920.366638
412.756836	848.950928
411.493164	888.360046
410.229492	840.715332
408.965820	895.933167
407.701172	858.192078
406.436523	836.281555
405.171875	863.795471
403.907227	895.251465
402.641602	849.635498
401.375977	916.641479
400.110352	876.964111
398.844727	860.999023
397.578125	843.065613
396.311523	854.749207
395.044922	878.270142
393.778320	822.851501
392.510742	881.881531
391.243164	858.043457
389.975586	913.099915
388.708008	865.603699
387.439453	865.438843
386.171875	902.723206
384.902344	882.844910
383.633789	908.290100
382.365234	959.334045
381.095703	923.700134
379.826172	941.246338
378.555664	986.348450
377.286133	972.381775
376.015625	950.548401
374.745117	948.399597
373.474609	1034.778198
372.203125	1010.978333
370.931641	1032.417236
369.660156	983.067078
368.388672	973.050842
367.116211	1067.203735
365.844727	1094.510376
364.572266	1100.195557
363.298828	1119.628418
362.026367	1152.800903
360.752930	1182.033691
359.479492	1150.398071
358.206055	1136.439331
356.931641	1163.695923
355.657227	1204.676147
354.382813	1206.407959
353.108398	1231.674194
351.833984	1219.673828
350.558594	1252.769897
349.283203	1244.690308
348.006836	1297.366455
346.731445	1279.484253
345.455078	1336.051636
344.178711	1306.416870
342.902344	1239.586182
341.625000	1296.128662
340.348633	1274.348389
339.070313	1323.033813
337.792969	1258.207520
336.515625	1209.057129
335.237305	1202.958130
333.958984	1167.526611
332.680664	1155.571899
331.401367	1186.629639
330.122070	1067.176392
328.842773	1016.164246
327.563477	1043.323120
326.284180	1031.403320
325.003906	972.614929
323.723633	995.861084
322.442383	950.767944
321.162109	974.009338
319.880859	913.325134
318.599609	920.955261
317.318359	940.287231
316.036133	910.851013
314.753906	861.925415
313.471680	859.810913
312.189453	881.088928
310.907227	884.818359
309.624023	906.083374
308.340820	822.137756
307.057617	864.832581
305.773438	856.877319
304.489258	852.819275
303.205078	819.562134
301.920898	842.761353
300.635742	830.924316
299.351563	894.969666
298.065430	797.537720
296.780273	875.178772
295.495117	851.677612
294.208984	863.179199
292.922852	896.057312
291.635742	930.866150
290.349609	870.455566
289.062500	889.714966
287.775391	839.046448
286.488281	893.258057
285.200195	916.384888
283.912109	900.680481
282.624023	881.100464
281.335938	857.647156
280.046875	874.942932
278.757813	894.171692
277.468750	870.729248
276.179688	913.218079
274.889648	940.182373
273.600586	899.301086
272.309570	920.444336
271.019531	883.457214
269.729492	852.295349
268.438477	894.738647
267.147461	915.866333
265.855469	913.754883
264.564453	911.644165
263.272461	895.987976
261.980469	924.838318
260.687500	1003.972900
259.395508	947.692444
258.102539	914.637939
256.808594	951.195679
255.515625	968.409851
254.221680	927.639832
252.928711	1027.937012
251.633789	987.171082
250.339844	927.106140
249.044922	903.755066
247.750000	957.642090
246.455078	1007.647705
245.160156	1082.723877
243.864258	978.316711
242.568359	1007.067688
241.272461	1001.087769
239.975586	968.110962
238.679688	1000.703491
237.382813	1050.633301
236.085938	959.843933
234.788086	1005.908325
233.490234	1034.614990
232.192383	1055.605591
230.894531	1086.217529
229.596680	1039.795776
228.297852	1016.493896
226.999023	970.103271
225.700195	1060.365479
224.400391	1100.567261
223.100586	1077.271484
221.800781	1057.831177
220.500977	1074.934570
219.201172	1036.276245
217.900391	1103.354858
216.599609	1055.096436
215.297852	1089.480347
213.997070	1127.693237
212.695313	1110.189819
211.393555	1108.056030
210.091797	1084.802856
208.789063	1067.317627
207.486328	1126.609741
206.183594	1111.041870
204.880859	1154.954346
203.577148	1175.832031
202.273438	1114.236572
200.969727	1121.692017
