3502.103516	30165.013672
3501.383789	29710.072266
3500.663086	29962.156250
3499.943359	29721.175781
3499.222656	29858.626953
3498.502930	29714.916016
3497.782227	29626.769531
3497.061523	29614.980469
3496.340820	29509.535156
3495.620117	29903.556641
3494.899414	29777.289063
3494.178711	29689.201172
3493.457031	29611.541016
3492.735352	29863.177734
3492.014648	29899.873047
3491.292969	29988.527344
3490.571289	29789.615234
3489.849609	30002.953125
3489.127930	29527.046875
3488.405273	29674.564453
3487.683594	29745.869141
3486.960938	29439.849609
3486.239258	29673.830078
3485.516602	29731.255859
3484.793945	29691.787109
3484.071289	29600.443359
3483.348633	29516.046875
3482.625000	29898.515625
3481.902344	29948.937500
3481.178711	30120.335938
3480.456055	30129.226563
3479.732422	29802.900391
3479.008789	30012.242188
3478.285156	30062.599609
3477.561523	30340.912109
3476.837891	30118.367188
3476.113281	30210.115234
3475.389648	29752.898438
3474.665039	30020.718750
3473.940430	30253.939453
3473.215820	30311.093750
3472.491211	30088.767578
3471.766602	29942.404297
3471.041992	30127.193359
3470.317383	29780.857422
3469.591797	29665.644531
3468.867188	29853.832031
3468.141602	30117.787109
3467.416016	29551.121094
3466.690430	29711.667969
3465.964844	30137.429688
3465.239258	29856.929688
3464.512695	29697.058594
3463.787109	29647.427734
3463.060547	30045.375000
3462.334961	29981.931641
3461.608398	30173.193359
3460.881836	30250.832031
3460.155273	29984.390625
3459.428711	29927.875000
3458.701172	29998.636719
3457.974609	30134.710938
3457.247070	29792.816406
3456.520508	30114.515625
3455.792969	29999.589844
3455.065430	29857.205078
3454.337891	29948.519531
3453.610352	30338.687500
3452.881836	30017.701172
3452.154297	29851.363281
3451.426758	30155.507813
3450.698242	30205.494141
3449.969727	30056.369141
3449.241211	30277.958984
3448.512695	30173.478516
3447.784180	29883.757813
3447.055664	30167.009766
3446.326172	30103.755859
3445.597656	30304.574219
3444.868164	30340.748047
3444.138672	30483.181641
3443.410156	30310.228516
3442.680664	30414.921875
3441.950195	30152.947266
3441.220703	30110.314453
3440.491211	30071.121094
3439.760742	29970.292969
3439.031250	30270.132813
3438.300781	30162.455078
3437.570313	30205.429688
3436.839844	30398.980469
3436.109375	30099.703125
3435.378906	30276.099609
3434.647461	30021.408203
3433.916992	30348.250000
3433.185547	30179.123047
3432.455078	29832.253906
3431.723633	29957.263672
3430.992188	30184.775391
3430.260742	30248.171875
3429.529297	30253.457031
3428.796875	30204.078125
3428.065430	30305.011719
3427.333008	30221.486328
3426.600586	30267.746094
3425.869141	30440.312500
3425.136719	30230.501953
3424.404297	30143.626953
3423.670898	30107.966797
3422.938477	30270.205078
3422.206055	30019.621094
3421.472656	30253.445313
3420.739258	30067.738281
3420.006836	29991.199219
3419.273438	30552.183594
3418.540039	30046.113281
3417.805664	30068.443359
3417.072266	29859.062500
3416.338867	29949.550781
3415.604492	29961.664063
3414.870117	30038.482422
3414.136719	30145.919922
3413.402344	30198.847656
3412.667969	30517.271484
3411.933594	30297.839844
3411.198242	30272.447266
3410.463867	30100.757813
3409.728516	30214.878906
3408.994141	30264.335938
3408.258789	30143.740234
3407.523438	30057.185547
3406.788086	30283.419922
3406.052734	30305.636719
3405.316406	30225.892578
3404.581055	30316.068359
3403.845703	30052.890625
3403.109375	30136.269531
3402.373047	30216.224609
3401.636719	30503.287109
3400.900391	30433.769531
3400.164063	29926.375000
3399.427734	29907.880859
3398.690430	30293.212891
3397.954102	30176.269531
3397.216797	30249.333984
3396.479492	30329.158203
3395.743164	30208.873047
3395.004883	30387.003906
3394.267578	30134.533203
3393.530273	30502.429688
3392.792969	30192.408203
3392.054688	30031.580078
3391.317383	30467.066406
3390.579102	30235.109375
3389.840820	30294.486328
3389.102539	29947.501953
3388.364258	30281.142578
3387.625000	30293.091797
3386.886719	30413.337891
3386.148438	30296.667969
3385.409180	30413.490234
3384.669922	30428.787109
3383.930664	30068.644531
3383.191406	30645.359375
3382.452148	30555.791016
3381.712891	30550.767578
3380.973633	30400.402344
3380.233398	30618.451172
3379.493164	30059.267578
3378.753906	30027.296875
3378.013672	30569.572266
3377.273438	30274.097656
3376.533203	30238.728516
3375.791992	30294.525391
3375.051758	30498.833984
3374.311523	30250.812500
3373.570313	30245.835938
3372.829102	30935.898438
3372.087891	30337.089844
3371.346680	30409.675781
3370.605469	30377.695313
3369.864258	30005.179688
3369.123047	29953.046875
3368.380859	30288.554688
3367.638672	30445.335938
3366.897461	30544.783203
3366.155273	30482.484375
3365.413086	30389.890625
3364.670898	30371.419922
3363.927734	30326.015625
3363.185547	30031.484375
3362.443359	30679.587891
3361.700195	30590.398438
3360.957031	30339.712891
3360.213867	30758.652344
3359.470703	30349.912109
3358.727539	30435.730469
3357.984375	30363.464844
3357.241211	30661.078125
3356.497070	30508.113281
3355.752930	30536.705078
3355.009766	30582.087891
3354.265625	30288.085938
3353.521484	30602.259766
3352.777344	30546.835938
3352.032227	30316.792969
3351.288086	30436.044922
3350.542969	30514.968750
3349.798828	30328.677734
3349.053711	30672.734375
3348.308594	30617.349609
3347.563477	30219.757813
3346.818359	30345.611328
3346.073242	30451.298828
3345.327148	30235.015625
3344.582031	30203.214844
3343.835938	30392.679688
3343.090820	30112.826172
3342.344727	30171.541016
3341.598633	30324.056641
3340.851563	30074.501953
3340.105469	30561.943359
3339.359375	29900.492188
3338.612305	30009.417969
3337.866211	30392.839844
3337.119141	30515.037109
3336.372070	30269.037109
3335.625000	30685.687500
3334.877930	30305.908203
3334.130859	29939.632813
3333.382813	30453.123047
3332.635742	30314.343750
3331.887695	30379.564453
3331.139648	30531.681641
3330.391602	30262.597656
3329.643555	30397.972656
3328.895508	30032.097656
3328.147461	30408.001953
3327.398438	30192.556641
3326.650391	30484.814453
3325.901367	30426.365234
3325.152344	30147.587891
3324.404297	30292.832031
3323.654297	30100.941406
3322.905273	30443.023438
3322.156250	30331.242188
3321.407227	30196.146484
3320.657227	30464.664063
3319.907227	30066.142578
3319.158203	29914.482422
3318.408203	30106.238281
3317.658203	30454.585938
3316.907227	30232.949219
3316.157227	30274.615234
3315.407227	30619.427734
3314.656250	30044.794922
3313.905273	30166.396484
3313.155273	30201.380859
3312.404297	30006.634766
3311.653320	30244.683594
3310.901367	30083.275391
3310.150391	30494.267578
3309.399414	30382.773438
3308.647461	29988.560547
3307.895508	29976.964844
3307.144531	30098.388672
3306.392578	30452.511719
3305.640625	30600.410156
3304.887695	30385.964844
3304.135742	30503.914063
3303.383789	30369.298828
3302.630859	29889.226563
3301.877930	30336.033203
3301.125000	30251.324219
3300.372070	30219.771484
3299.619141	30563.380859
3298.866211	30478.675781
3298.113281	30284.474609
3297.359375	30408.892578
3296.606445	30456.960938
3295.852539	30223.048828
3295.098633	30271.130859
3294.344727	30040.640625
3293.590820	29820.173828
3292.836914	30176.591797
3292.082031	30290.933594
3291.328125	30266.052734
3290.573242	30237.865234
3289.818359	30266.005859
3289.064453	30158.330078
3288.309570	30295.759766
3287.553711	30350.361328
3286.798828	30348.664063
3286.043945	30075.537109
3285.288086	30093.742188
3284.533203	30515.636719
3283.777344	30156.595703
3283.021484	30353.402344
3282.265625	30318.626953
3281.509766	30042.462891
3280.752930	30259.025391
3279.997070	30683.775391
3279.240234	30222.595703
3278.484375	29953.236328
3277.727539	30100.279297
3276.970703	30329.863281
3276.213867	30605.611328
3275.457031	30068.863281
3274.700195	30331.353516
3273.942383	30124.962891
3273.185547	30489.681641
3272.427734	30349.335938
3271.669922	30370.722656
3270.912109	30154.560547
3270.154297	30189.164063
3269.396484	30368.873047
3268.637695	30235.253906
3267.879883	30411.595703
3267.121094	30248.343750
3266.363281	30193.910156
3265.604492	30271.308594
3264.845703	30187.232422
3264.086914	30264.603516
3263.328125	29986.224609
3262.568359	30442.320313
3261.809570	30137.660156
3261.049805	30112.929688
3260.290039	30364.697266
3259.530273	30162.220703
3258.770508	30104.589844
3258.010742	30073.296875
3257.250977	30094.644531
3256.491211	30517.222656
3255.730469	30199.792969
3254.970703	30428.234375
3254.209961	30222.685547
3253.449219	30464.193359
3252.688477	30173.265625
3251.927734	30306.275391
3251.166016	30501.654297
3250.405273	30391.509766
3249.643555	30356.931641
3248.882813	30545.636719
3248.121094	30412.556641
3247.359375	30525.695313
3246.597656	30464.859375
3245.835938	30095.605469
3245.073242	30198.894531
3244.311523	30154.541016
3243.548828	30179.074219
3242.787109	30206.876953
3242.024414	29992.056641
3241.261719	30180.500000
3240.499023	30322.996094
3239.736328	30301.599609
3238.972656	30561.974609
3238.209961	30190.029297
3237.446289	30168.662109
3236.682617	30039.234375
3235.919922	29775.605469
3235.156250	30268.279297
3234.391602	30479.298828
3233.627930	29652.841797
3232.864258	30220.544922
3232.099609	30359.494141
3231.335938	30347.931641
3230.571289	30588.193359
3229.806641	30409.832031
3229.041992	30568.269531
3228.277344	30226.527344
3227.511719	30502.597656
3226.747070	30448.537109
3225.981445	30240.935547
3225.216797	30239.201172
3224.451172	30341.978516
3223.685547	30193.275391
3222.919922	30345.001953
3222.154297	30362.832031
3221.387695	30315.378906
3220.622070	30098.242188
3219.855469	30282.507813
3219.089844	30567.843750
3218.323242	29874.552734
3217.556641	30512.072266
3216.790039	30340.728516
3216.022461	30306.365234
3215.255859	30327.427734
3214.489258	30208.341797
3213.721680	30356.494141
3212.954102	30364.501953
3212.186523	30300.841797
3211.418945	30494.498047
3210.651367	30544.810547
3209.883789	30416.033203
3209.115234	29870.619141
3208.347656	29995.865234
3207.579102	29997.408203
3206.810547	30106.322266
3206.041992	30237.968750
3205.273438	30327.289063
3204.504883	30201.941406
3203.736328	30255.470703
3202.966797	29892.851563
3202.198242	30277.957031
3201.428711	30298.943359
3200.659180	30095.714844
3199.889648	30110.224609
3199.120117	30147.466797
3198.350586	30168.457031
3197.581055	30010.839844
3196.810547	30025.351563
3196.041016	30111.271484
3195.270508	30034.880859
3194.500000	30737.332031
3193.729492	30514.857422
3192.958984	30444.923828
3192.187500	30475.558594
3191.416992	30087.845703
3190.645508	30219.042969
3189.875000	30431.240234
3189.103516	30231.720703
3188.332031	30123.007813
3187.560547	30429.080078
3186.789063	30135.707031
3186.016602	30448.152344
3185.245117	30462.539063
3184.472656	29929.683594
3183.701172	30365.031250
3182.928711	30117.222656
3182.156250	30646.251953
3181.383789	30010.164063
3180.611328	30403.146484
3179.837891	30061.681641
3179.065430	30347.791016
3178.291992	30226.343750
3177.518555	30273.068359
3176.745117	30012.664063
3175.971680	30143.441406
3175.198242	30238.626953
3174.424805	30126.988281
3173.650391	30399.824219
3172.876953	30352.794922
3172.102539	30128.156250
3171.328125	30090.873047
3170.553711	30111.710938
3169.779297	30003.425781
3169.004883	30311.507813
3168.230469	30070.923828
3167.455078	30088.521484
3166.680664	29977.082031
3165.905273	29904.380859
3165.129883	29941.343750
3164.354492	30071.794922
3163.579102	29999.111328
3162.803711	29710.503906
3162.027344	29799.031250
3161.251953	29855.308594
3160.475586	29460.556641
3159.699219	30038.664063
3158.922852	29949.951172
3158.146484	29944.982422
3157.370117	30387.505859
3156.593750	29783.765625
3155.816406	30097.435547
3155.040039	30311.250000
3154.262695	30116.406250
3153.485352	29995.609375
3152.708008	29929.525391
3151.930664	29956.716797
3151.153320	29971.037109
3150.375000	29734.617188
3149.597656	29893.597656
3148.819336	30107.154297
3148.041992	29970.427734
3147.263672	30299.546875
3146.485352	30088.957031
3145.706055	29968.355469
3144.927734	30027.599609
3144.149414	30417.480469
3143.370117	29616.414063
3142.590820	29990.187500
3141.812500	29712.470703
3141.033203	29726.787109
3140.252930	29657.701172
3139.473633	29672.021484
3138.694336	29926.826172
3137.914063	29739.115234
3137.134766	29509.792969
3136.354492	30181.142578
3135.574219	29631.378906
3134.793945	29712.964844
3134.013672	29929.062500
3133.233398	29911.283203
3132.452148	29935.136719
3131.671875	29786.085938
3130.890625	29957.208984
3130.109375	29949.033203
3129.328125	30257.677734
3128.546875	29862.296875
3127.765625	29658.992188
3126.984375	29618.882813
3126.202148	29818.638672
3125.419922	29797.699219
3124.638672	29473.050781
3123.856445	29826.158203
3123.074219	30175.953125
3122.291992	29854.595703
3121.508789	29993.404297
3120.726563	29780.791016
3119.943359	29533.115234
3119.161133	29857.115234
3118.377930	29606.314453
3117.594727	29770.582031
3116.811523	29874.154297
3116.028320	29617.087891
3115.244141	29500.496094
3114.460938	29607.248047
3113.676758	29631.033203
3112.892578	30043.873047
3112.108398	29570.169922
3111.324219	29711.902344
3110.540039	29872.712891
3109.755859	29654.224609
3108.971680	29751.259766
3108.186523	29771.802734
3107.401367	29808.263672
3106.617188	29879.744141
3105.832031	29744.222656
3105.046875	29605.560547
3104.260742	29683.402344
3103.475586	29898.074219
3102.689453	29880.375000
3101.904297	29786.322266
3101.118164	29698.662109
3100.332031	29585.583984
3099.545898	29688.787109
3098.759766	29543.951172
3097.973633	29230.679688
3097.186523	29489.628906
3096.400391	29491.082031
3095.613281	29934.189453
3094.826172	29687.769531
3094.039063	30051.287109
3093.251953	29249.162109
3092.464844	29720.589844
3091.677734	29442.619141
3090.889648	29663.091797
3090.101563	29677.199219
3089.314453	29780.150391
3088.526367	29870.375000
3087.738281	29684.597656
3086.950195	30101.478516
3086.161133	29620.812500
3085.373047	29092.748047
3084.583984	29633.148438
3083.795898	30087.791016
3083.006836	30085.955078
3082.217773	29678.560547
3081.428711	29524.730469
3080.638672	29814.382813
3079.849609	29546.574219
3079.060547	29611.316406
3078.270508	29815.330078
3077.480469	29943.308594
3076.690430	29852.876953
3075.900391	30078.896484
3075.110352	29808.140625
3074.320313	30027.763672
3073.529297	29747.617188
3072.739258	29559.263672
3071.948242	29269.802734
3071.157227	29653.738281
3070.366211	29604.554688
3069.575195	29678.626953
3068.784180	29676.845703
3067.992188	30085.724609
3067.201172	29682.755859
3066.409180	29624.130859
3065.617188	29742.333984
3064.825195	29645.833984
3064.033203	29748.212891
3063.241211	29702.234375
3062.449219	29946.552734
3061.656250	29812.222656
3060.864258	29854.570313
3060.071289	30060.894531
3059.278320	29608.140625
3058.485352	29849.113281
3057.692383	29532.083984
3056.898438	29631.167969
3056.105469	29758.576172
3055.311523	29860.736328
3054.518555	29742.363281
3053.724609	29592.531250
3052.930664	29713.560547
3052.136719	29821.953125
3051.342773	29832.724609
3050.547852	30026.039063
3049.753906	29637.119141
3048.958984	29994.009766
3048.164063	29624.097656
3047.369141	30276.527344
3046.574219	29689.701172
3045.779297	29763.359375
3044.984375	29698.667969
3044.188477	29932.601563
3043.393555	29594.490234
3042.597656	29460.730469
3041.801758	29386.705078
3041.005859	29702.199219
3040.209961	29628.154297
3039.414063	29343.751953
3038.617188	29392.232422
3037.821289	29654.148438
3037.024414	29445.203125
3036.227539	29440.294922
3035.430664	29551.470703
3034.633789	29414.794922
3033.836914	29983.849609
3033.040039	29771.882813
3032.242188	29519.226563
3031.445313	29724.337891
3030.647461	29722.515625
3029.849609	29695.623047
3029.051758	29696.937500
3028.253906	29829.824219
3027.455078	29524.158203
3026.657227	29622.580078
3025.858398	29401.587891
3025.060547	29618.960938
3024.261719	29366.740234
3023.462891	29521.451172
3022.664063	29823.175781
3021.864258	29755.630859
3021.065430	29500.423828
3020.265625	29367.275391
3019.466797	29496.835938
3018.666992	29451.271484
3017.867188	29602.654297
3017.067383	29832.121094
3016.267578	29392.783203
3015.466797	29584.714844
3014.666992	29445.453125
3013.866211	29624.816406
3013.065430	29548.046875
3012.264648	29761.677734
3011.463867	29684.910156
3010.663086	29814.167969
3009.862305	29693.726563
3009.060547	29582.683594
3008.259766	29708.771484
3007.458008	29572.808594
3006.656250	29592.820313
3005.854492	29697.015625
3005.052734	29960.171875
3004.250977	29680.867188
3003.448242	29579.298828
3002.646484	29914.009766
3001.843750	29871.628906
3001.041016	30053.541016
3000.238281	29674.785156
2999.435547	29837.984375
2998.632813	29711.578125
2997.830078	29912.070313
2997.026367	29891.513672
2996.222656	29584.667969
2995.419922	29841.082031
2994.616211	29982.308594
2993.812500	30145.257813
2993.007813	30121.564453
2992.204102	30063.675781
2991.400391	30301.138672
2990.595703	30566.494141
2989.791016	30269.261719
2988.986328	30394.707031
2988.181641	30585.351563
2987.376953	30142.271484
2986.572266	30345.314453
2985.766602	30492.396484
2984.961914	30595.962891
2984.156250	30587.748047
2983.350586	30557.808594
2982.544922	30701.648438
2981.739258	30864.054688
2980.933594	31038.814453
2980.126953	31083.251953
2979.321289	31047.046875
2978.514648	31261.992188
2977.708008	31303.265625
2976.901367	31629.673828
2976.094727	31658.474609
2975.288086	32049.777344
2974.481445	32032.029297
2973.673828	32042.162109
2972.867188	32123.515625
2972.059570	32483.511719
2971.251953	33097.242188
2970.444336	33803.625000
2969.636719	33869.152344
2968.828125	34426.644531
2968.020508	34773.574219
2967.211914	34668.777344
2966.403320	35315.539063
2965.594727	35758.000000
2964.786133	36231.230469
2963.977539	36382.820313
2963.168945	36318.011719
2962.360352	36265.585938
2961.550781	36037.070313
2960.741211	36262.722656
2959.931641	35441.277344
2959.122070	35527.992188
2958.312500	35361.496094
2957.502930	35071.578125
2956.693359	35263.246094
2955.882813	34566.085938
2955.072266	34665.210938
2954.261719	34548.351563
2953.451172	34422.277344
2952.640625	34709.492188
2951.830078	34999.691406
2951.019531	34969.171875
2950.208008	35129.769531
2949.396484	35681.703125
2948.585938	36325.894531
2947.774414	36748.050781
2946.962891	37897.015625
2946.150391	38438.878906
2945.338867	39273.085938
2944.527344	40470.308594
2943.714844	41531.687500
2942.902344	42798.914063
2942.089844	44031.867188
2941.277344	44193.714844
2940.464844	45533.687500
2939.652344	45476.851563
2938.838867	46241.101563
2938.026367	46411.691406
2937.212891	45908.984375
2936.399414	45566.277344
2935.585938	45463.378906
2934.772461	44008.582031
2933.958008	43927.484375
2933.144531	43014.019531
2932.330078	42097.789063
2931.516602	41706.921875
2930.702148	41574.070313
2929.887695	40799.730469
2929.073242	40412.343750
2928.257813	40528.316406
2927.443359	41052.281250
2926.627930	40974.855469
2925.813477	41173.476563
2924.998047	41626.539063
2924.182617	41564.378906
2923.367188	42011.093750
2922.550781	41878.394531
2921.735352	42579.246094
2920.918945	42615.007813
2920.103516	43098.000000
2919.287109	43393.996094
2918.470703	42740.578125
2917.654297	42635.441406
2916.836914	42968.097656
2916.020508	43242.488281
2915.204102	42485.476563
2914.386719	42894.484375
2913.569336	42351.929688
2912.751953	42020.605469
2911.934570	41976.863281
2911.117188	41731.328125
2910.298828	41547.019531
2909.481445	40937.890625
2908.663086	40958.535156
2907.844727	40994.445313
2907.026367	40813.429688
2906.208008	41050.957031
2905.389648	40708.125000
2904.571289	41015.820313
2903.751953	41054.738281
2902.933594	40889.121094
2902.114258	40818.171875
2901.294922	41452.148438
2900.475586	41625.210938
2899.656250	41163.699219
2898.835938	41385.546875
2898.016602	41296.269531
2897.196289	41072.867188
2896.376953	41053.785156
2895.556641	41065.183594
2894.736328	41104.007813
2893.915039	40722.339844
2893.094727	40694.183594
2892.274414	40809.195313
2891.453125	40908.937500
2890.631836	40853.355469
2889.810547	40892.167969
2888.989258	40940.097656
2888.167969	40686.714844
2887.346680	40996.343750
2886.524414	41035.101563
2885.703125	41688.292969
2884.880859	41912.437500
2884.058594	42385.851563
2883.236328	42956.394531
2882.414063	43386.914063
2881.591797	44227.589844
2880.768555	44727.640625
2879.946289	45786.562500
2879.123047	47312.941406
2878.299805	48702.128906
2877.476563	49829.691406
2876.653320	50944.726563
2875.830078	51455.281250
2875.005859	51486.097656
2874.182617	49914.589844
2873.358398	48938.304688
2872.534180	47683.250000
2871.709961	46440.746094
2870.885742	45313.898438
2870.060547	44633.152344
2869.236328	43658.566406
2868.411133	43951.316406
2867.586914	43592.382813
2866.761719	44091.089844
2865.936523	44153.367188
2865.111328	44794.175781
2864.286133	45313.625000
2863.459961	45742.054688
2862.634766	45513.359375
2861.808594	45726.687500
2860.982422	45171.203125
2860.156250	43750.453125
2859.330078	43065.386719
2858.503906	42241.394531
2857.676758	41665.687500
2856.850586	41271.613281
2856.023438	41282.820313
2855.196289	41439.125000
2854.369141	41553.062500
2853.541992	41521.902344
2852.714844	41835.199219
2851.886719	41236.062500
2851.059570	40096.460938
2850.231445	39793.769531
2849.403320	38150.546875
2848.575195	36776.562500
2847.747070	35949.371094
2846.918945	34413.246094
2846.089844	33722.511719
2845.261719	32893.226563
2844.432617	32459.371094
2843.603516	31805.498047
2842.774414	30738.738281
2841.945313	30531.574219
2841.116211	30098.402344
2840.286133	29767.843750
2839.457031	29741.746094
2838.626953	29119.111328
2837.796875	28909.376953
2836.966797	28952.703125
2836.136719	28962.890625
2835.306641	28747.263672
2834.476563	28378.179688
2833.645508	28490.789063
2832.814453	28055.667969
2831.984375	27840.333984
2831.153320	28238.759766
2830.321289	28188.892578
2829.490234	28319.478516
2828.659180	27995.996094
2827.827148	28072.455078
2826.995117	28064.726563
2826.164063	27963.835938
2825.332031	27679.691406
2824.500000	27443.707031
2823.666992	27577.259766
2822.834961	27761.822266
2822.001953	27351.783203
2821.169922	27272.125000
2820.336914	27411.617188
2819.503906	27331.974609
2818.670898	26943.283203
2817.836914	27325.773438
2817.003906	27129.195313
2816.169922	27256.591797
2815.336914	27347.960938
2814.502930	27079.517578
2813.668945	27125.919922
2812.834961	27034.435547
2812.000000	27128.773438
2811.166016	26968.406250
2810.331055	26661.304688
2809.497070	26998.261719
2808.662109	26736.175781
2807.827148	26980.187500
2806.992188	27062.458984
2806.156250	27171.640625
2805.321289	26867.802734
2804.485352	26647.843750
2803.650391	26622.414063
2802.814453	26749.539063
2801.978516	26679.240234
2801.142578	26668.767578
2800.305664	26682.210938
2799.469727	26683.695313
2798.632813	26700.121094
2797.795898	26510.359375
2796.959961	26729.962891
2796.123047	26770.265625
2795.285156	26906.125000
2794.448242	26698.537109
2793.611328	26589.542969
2792.773438	26373.123047
2791.935547	26413.447266
2791.097656	26611.912109
2790.259766	26559.691406
2789.421875	26579.080078
2788.583984	26553.720703
2787.745117	26549.246094
2786.907227	26586.513672
2786.068359	26370.376953
2785.229492	26371.892578
2784.390625	26525.390625
2783.551758	26175.291016
2782.712891	26438.992188
2781.873047	26351.134766
2781.033203	26242.460938
2780.194336	26059.384766
2779.354492	26081.783203
2778.514648	26163.705078
2777.673828	26192.029297
2776.833984	26389.949219
2775.994141	26117.746094
2775.153320	26021.132813
2774.312500	26296.300781
2773.471680	26321.601563
2772.630859	26219.052734
2771.790039	26193.822266
2770.949219	26343.949219
2770.107422	26327.619141
2769.265625	26168.685547
2768.424805	26128.625000
2767.583008	26136.097656
2766.741211	26012.906250
2765.898438	26231.193359
2765.056641	26238.642578
2764.213867	26326.222656
2763.372070	25820.273438
2762.529297	26020.638672
2761.686523	26069.644531
2760.843750	26272.867188
2760.000977	26188.363281
2759.157227	26367.773438
2758.314453	26523.408203
2757.470703	26430.009766
2756.626953	26138.089844
2755.783203	26059.603516
2754.939453	26001.878906
2754.095703	25958.984375
2753.250977	26215.212891
2752.407227	26364.759766
2751.562500	26463.925781
2750.717773	26494.978516
2749.873047	26520.099609
2749.028320	26568.884766
2748.183594	26351.386719
2747.337891	26385.390625
2746.493164	26259.677734
2745.647461	26497.716797
2744.801758	26493.242188
2743.956055	26539.019531
2743.110352	26460.650391
2742.263672	26751.681641
2741.417969	26537.394531
2740.571289	26816.496094
2739.725586	26888.757813
2738.878906	26751.330078
2738.032227	27151.304688
2737.184570	26972.548828
2736.337891	27032.925781
2735.491211	27240.832031
2734.643555	26923.474609
2733.795898	27151.976563
2732.948242	27067.751953
2732.100586	27169.343750
2731.252930	27294.486328
2730.404297	27304.615234
2729.556641	27040.617188
2728.708008	26903.431641
2727.859375	26901.832031
2727.010742	26764.712891
2726.162109	26562.837891
2725.313477	26472.941406
2724.464844	26427.244141
2723.615234	26360.951172
2722.765625	26403.591797
2721.916992	26457.988281
2721.067383	25888.546875
2720.216797	26122.476563
2719.367188	25688.591797
2718.517578	26284.224609
2717.666992	25862.220703
2716.816406	25716.724609
2715.966797	25785.865234
2715.116211	26137.130859
2714.264648	25433.332031
2713.414063	25793.351563
2712.563477	25653.861328
2711.711914	25896.236328
2710.860352	25545.339844
2710.008789	25764.160156
2709.157227	25407.531250
2708.305664	25406.169922
2707.454102	25181.775391
2706.601563	25271.408203
2705.750000	25469.550781
2704.897461	25318.585938
2704.044922	25232.189453
2703.192383	25277.765625
2702.338867	25411.275391
2701.486328	25333.697266
2700.633789	25581.443359
2699.780273	25204.988281
2698.926758	25484.896484
2698.073242	25284.332031
2697.219727	25285.910156
2696.366211	25284.558594
2695.511719	24993.369141
2694.658203	25082.806641
2693.803711	24999.541016
2692.949219	25188.435547
2692.094727	25251.462891
2691.240234	24925.417969
2690.385742	24839.306641
2689.530273	24601.166016
2688.675781	24766.576172
2687.820313	24744.841797
2686.964844	24658.816406
2686.109375	24932.251953
2685.253906	24802.394531
2684.397461	24879.988281
2683.541992	24720.976563
2682.685547	24912.445313
2681.829102	24887.789063
2680.972656	24883.572266
2680.116211	25022.376953
2679.259766	24933.507813
2678.403320	24783.396484
2677.545898	24764.613281
2676.688477	24877.087891
2675.832031	24802.882813
2674.974609	25058.185547
2674.117188	24975.226563
2673.258789	24930.187500
2672.401367	24803.562500
2671.542969	24770.222656
2670.685547	24833.031250
2669.827148	24962.812500
2668.968750	24801.316406
2668.109375	24683.550781
2667.250977	24568.738281
2666.392578	24646.076172
2665.533203	24601.154297
2664.673828	24853.050781
2663.814453	24554.994141
2662.955078	24387.933594
2662.095703	24604.835938
2661.236328	24458.179688
2660.375977	24331.921875
2659.516602	24330.703125
2658.656250	24187.070313
2657.795898	24206.216797
2656.935547	24149.814453
2656.074219	24273.537109
2655.213867	24443.685547
2654.352539	24099.781250
2653.492188	23767.603516
2652.630859	24085.800781
2651.769531	23994.642578
2650.908203	24077.630859
2650.045898	23803.708984
2649.184570	24112.978516
2648.322266	24239.410156
2647.460938	23687.197266
2646.598633	23607.792969
2645.736328	23928.476563
2644.873047	23773.693359
2644.010742	23824.722656
2643.147461	23785.910156
2642.285156	24219.328125
2641.421875	23473.699219
2640.558594	23640.583984
2639.695313	23714.753906
2638.832031	23788.896484
2637.967773	23637.234375
2637.104492	23610.070313
2636.240234	24066.146484
2635.375977	23758.283203
2634.511719	23814.996094
2633.647461	23912.177734
2632.783203	23879.203125
2631.917969	23935.863281
2631.053711	23686.093750
2630.188477	23809.240234
2629.323242	23706.947266
2628.458008	23298.435547
2627.592773	23444.691406
2626.726563	23821.955078
2625.861328	23630.207031
2624.995117	23588.660156
2624.128906	23786.726563
2623.262695	23563.332031
2622.396484	23842.134766
2621.530273	23569.755859
2620.664063	23588.830078
2619.796875	23737.689453
2618.929688	23776.916016
2618.062500	23715.208984
2617.195313	23595.869141
2616.328125	23747.505859
2615.460938	23406.294922
2614.592773	23376.386719
2613.725586	23507.814453
2612.857422	23319.476563
2611.989258	23571.824219
2611.121094	23498.712891
2610.252930	23296.076172
2609.383789	23315.144531
2608.515625	23483.857422
2607.646484	23324.484375
2606.777344	23519.029297
2605.908203	23210.126953
2605.039063	23240.693359
2604.169922	23366.138672
2603.300781	23278.792969
2602.430664	23294.957031
2601.560547	23647.375000
2600.690430	23241.060547
2599.820313	23311.808594
2598.950195	23281.992188
2598.080078	23306.753906
2597.208984	23182.183594
2596.338867	23097.851563
2595.467773	22950.394531
2594.596680	23328.214844
2593.725586	23088.939453
2592.853516	22892.781250
2591.982422	22834.382813
2591.110352	22942.357422
2590.239258	22981.468750
2589.367188	23072.177734
2588.495117	22861.851563
2587.623047	23204.771484
2586.750000	23083.330078
2585.877930	23257.046875
2585.004883	23261.683594
2584.132813	23154.613281
2583.259766	22847.115234
2582.386719	23052.246094
2581.512695	22819.300781
2580.639648	22927.046875
2579.765625	22579.726563
2578.892578	22641.695313
2578.018555	22955.394531
2577.144531	23068.761719
2576.270508	22704.492188
2575.395508	22268.861328
2574.521484	22408.015625
2573.646484	22295.580078
2572.772461	22468.976563
2571.897461	22590.878906
2571.022461	22621.316406
2570.146484	22631.746094
2569.271484	22733.564453
2568.396484	22598.339844
2567.520508	22782.923828
2566.644531	22473.609375
2565.768555	22498.322266
2564.892578	22796.966797
2564.016602	22627.607422
2563.139648	22618.048828
2562.263672	22383.177734
2561.386719	22228.230469
2560.509766	22230.146484
2559.632813	22274.820313
2558.755859	22464.835938
2557.877930	22341.322266
2557.000977	22499.919922
2556.123047	22208.369141
2555.245117	22264.396484
2554.367188	22143.847656
2553.489258	22083.128906
2552.611328	22429.515625
2551.733398	22383.000000
2550.854492	21866.945313
2549.975586	22483.492188
2549.096680	22340.265625
2548.217773	22273.882813
2547.338867	22147.800781
2546.459961	22138.339844
2545.580078	22003.792969
2544.701172	22181.955078
2543.821289	22252.062500
2542.941406	22191.441406
2542.061523	22145.044922
2541.181641	21953.798828
2540.300781	22293.691406
2539.420898	22289.890625
2538.540039	22178.207031
2537.659180	22129.009766
2536.778320	22312.544922
2535.897461	22240.640625
2535.015625	22236.847656
2534.134766	22261.419922
2533.252930	22232.097656
2532.371094	22216.964844
2531.489258	22000.541016
2530.607422	21908.914063
2529.725586	21879.669922
2528.843750	22113.964844
2527.960938	22022.363281
2527.078125	21721.171875
2526.195313	21550.365234
2525.312500	21640.136719
2524.429688	21845.957031
2523.546875	21782.783203
2522.663086	21694.156250
2521.780273	21970.605469
2520.896484	21802.755859
2520.012695	21807.521484
2519.128906	21735.917969
2518.245117	21819.873047
2517.360352	21793.529297
2516.476563	21908.539063
2515.591797	21851.097656
2514.707031	21754.111328
2513.822266	21665.632813
2512.937500	21735.384766
2512.051758	21276.929688
2511.166992	21857.867188
2510.281250	21964.251953
2509.395508	21856.048828
2508.509766	21874.898438
2507.624023	21806.253906
2506.738281	21636.056641
2505.851563	21590.044922
2504.965820	21484.814453
2504.079102	21373.978516
2503.192383	21618.458984
2502.305664	21812.109375
2501.418945	21143.167969
2500.532227	21353.742188
2499.644531	21428.990234
2498.756836	21543.656250
2497.870117	21559.691406
2496.982422	21299.724609
2496.093750	21169.373047
2495.206055	21329.046875
2494.318359	21466.144531
2493.429688	21476.548828
2492.541016	21686.734375
2491.652344	21685.841797
2490.763672	21760.898438
2489.875000	21554.681641
2488.986328	21736.587891
2488.096680	21519.199219
2487.207031	21318.750000
2486.318359	21464.064453
2485.427734	21300.220703
2484.538086	21189.816406
2483.648438	21391.257813
2482.758789	21533.648438
2481.868164	21266.001953
2480.977539	21133.212891
2480.086914	21519.796875
2479.196289	21081.080078
2478.305664	21178.498047
2477.414063	21334.804688
2476.523438	21353.597656
2475.631836	21108.734375
2474.740234	21178.035156
2473.848633	21286.566406
2472.957031	20893.261719
2472.065430	21237.242188
2471.172852	21023.429688
2470.280273	20899.351563
2469.388672	21024.642578
2468.496094	21068.660156
2467.602539	20768.207031
2466.709961	20994.251953
2465.817383	20859.083984
2464.923828	21043.048828
2464.030273	20994.671875
2463.136719	20837.185547
2462.243164	20724.513672
2461.349609	20785.298828
2460.456055	20915.980469
2459.561523	20931.972656
2458.666992	20704.736328
2457.773438	20832.566406
2456.878906	20840.179688
2455.983398	20752.785156
2455.088867	21042.576172
2454.194336	20865.791016
2453.298828	20753.298828
2452.403320	20593.375000
2451.507813	20726.650391
2450.612305	20739.847656
2449.716797	20817.232422
2448.820313	20406.267578
2447.924805	20670.607422
2447.028320	20583.382813
2446.131836	20655.160156
2445.235352	20726.912109
2444.338867	20503.107422
2443.442383	20909.365234
2442.544922	20677.244141
2441.647461	20640.261719
2440.750000	20363.687500
2439.852539	20385.269531
2438.955078	20660.292969
2438.057617	20509.164063
2437.160156	20669.917969
2436.261719	20332.330078
2435.363281	20289.878906
2434.464844	20361.537109
2433.566406	20168.851563
2432.667969	20362.904297
2431.768555	20384.447266
2430.870117	20216.882813
2429.970703	20288.486328
2429.071289	20396.205078
2428.171875	20545.578125
2427.272461	20330.855469
2426.373047	20205.117188
2425.472656	20171.095703
2424.572266	20064.867188
2423.672852	20036.433594
2422.772461	19927.488281
2421.871094	20024.011719
2420.970703	20009.474609
2420.070313	20205.855469
2419.168945	20096.951172
2418.267578	20254.408203
2417.366211	19826.554688
2416.464844	20153.171875
2415.563477	19922.347656
2414.661133	19844.078125
2413.759766	19857.304688
2412.857422	20070.062500
2411.955078	19786.761719
2411.052734	20104.732422
2410.150391	20115.132813
2409.248047	19837.507813
2408.344727	19814.720703
2407.441406	19869.458984
2406.538086	19807.921875
2405.634766	20089.578125
2404.731445	19972.681641
2403.828125	19847.523438
2402.923828	19924.333984
2402.020508	19730.085938
2401.116211	19732.228516
2400.211914	19568.490234
2399.307617	19670.171875
2398.403320	19578.355469
2397.498047	19726.972656
2396.593750	19836.861328
2395.688477	19681.527344
2394.783203	19882.525391
2393.877930	19484.234375
2392.972656	19676.914063
2392.066406	19281.554688
2391.161133	19694.996094
2390.254883	19746.802734
2389.348633	19776.519531
2388.442383	19309.689453
2387.536133	19540.808594
2386.629883	19487.814453
2385.722656	19564.423828
2384.815430	19743.000000
2383.909180	19384.064453
2383.001953	19438.603516
2382.093750	19438.019531
2381.186523	19453.962891
2380.279297	19376.255859
2379.371094	19488.585938
2378.462891	19507.263672
2377.554688	19278.177734
2376.646484	19431.750000
2375.738281	19387.132813
2374.829102	19488.353516
2373.920898	19330.951172
2373.011719	19289.121094
2372.102539	19170.306641
2371.193359	19191.755859
2370.284180	19325.910156
2369.375000	19487.503906
2368.464844	19234.074219
2367.554688	19211.535156
2366.644531	19296.140625
2365.734375	19259.863281
2364.824219	19314.222656
2363.914063	19044.562500
2363.002930	19013.833984
2362.092773	19296.025391
2361.181641	19174.699219
2360.270508	19157.683594
2359.359375	19297.044922
2358.447266	19367.785156
2357.536133	19169.738281
2356.624023	19078.697266
2355.711914	19196.042969
2354.800781	19085.839844
2353.887695	19241.507813
2352.975586	19095.712891
2352.063477	18991.062500
2351.150391	18935.750000
2350.237305	18853.070313
2349.324219	19194.839844
2348.411133	19005.371094
2347.498047	19040.421875
2346.584961	18998.830078
2345.670898	18902.525391
2344.756836	19008.705078
2343.843750	18803.015625
2342.929688	18706.792969
2342.014648	19031.705078
2341.100586	19028.429688
2340.185547	18880.277344
2339.271484	19174.927734
2338.356445	18840.986328
2337.441406	18807.689453
2336.526367	18943.763672
2335.610352	18981.468750
2334.695313	18942.701172
2333.779297	18753.785156
2332.863281	18660.474609
2331.947266	18528.984375
2331.031250	18596.742188
2330.115234	18530.787109
2329.198242	18557.601563
2328.282227	18865.328125
2327.365234	18973.880859
2326.448242	18801.572266
2325.531250	18629.324219
2324.614258	18748.761719
2323.696289	18658.330078
2322.779297	18927.572266
2321.861328	18878.000000
2320.943359	18697.712891
2320.025391	18629.134766
2319.107422	18704.880859
2318.188477	18467.546875
2317.270508	18755.591797
2316.351563	18668.000000
2315.432617	18585.878906
2314.513672	18691.488281
2313.594727	18508.753906
2312.674805	18687.763672
2311.755859	18230.480469
2310.835938	18499.183594
2309.916016	18387.273438
2308.996094	18503.675781
2308.076172	18562.976563
2307.156250	18538.042969
2306.235352	18290.394531
2305.315430	18425.740234
2304.394531	18517.593750
2303.473633	18384.093750
2302.551758	18549.207031
2301.630859	18217.638672
2300.709961	18089.683594
2299.788086	18287.314453
2298.866211	17909.851563
2297.944336	17923.033203
2297.022461	18269.716797
2296.100586	18247.587891
2295.177734	18192.941406
2294.255859	18100.371094
2293.333008	18140.599609
2292.410156	18010.142578
2291.487305	18280.605469
2290.563477	18117.669922
2289.640625	18306.789063
2288.716797	18273.849609
2287.793945	18059.568359
2286.870117	18045.626953
2285.946289	17909.925781
2285.021484	18066.451172
2284.097656	17941.611328
2283.172852	17935.808594
2282.249023	17913.785156
2281.324219	17864.732422
2280.399414	17907.599609
2279.473633	17785.593750
2278.548828	17920.330078
2277.623047	17876.710938
2276.698242	17876.326172
2275.772461	17932.654297
2274.846680	17748.640625
2273.919922	17775.273438
2272.994141	17772.203125
2272.067383	17550.527344
2271.141602	17550.193359
2270.214844	17641.587891
2269.288086	17781.505859
2268.361328	17907.888672
2267.433594	17783.451172
2266.506836	17518.863281
2265.579102	17642.527344
2264.651367	17841.611328
2263.723633	17679.544922
2262.795898	17700.738281
2261.867188	17638.416016
2260.939453	17662.300781
2260.010742	17131.462891
2259.082031	17343.886719
2258.153320	17569.697266
2257.224609	17370.189453
2256.295898	17108.857422
2255.366211	17522.919922
2254.437500	17272.412109
2253.507813	17299.009766
2252.578125	17376.691406
2251.648438	17405.949219
2250.717773	17343.800781
2249.788086	17434.871094
2248.857422	17697.888672
2247.926758	17307.937500
2246.996094	17345.238281
2246.065430	17140.802734
2245.134766	17401.001953
2244.203125	17328.185547
2243.272461	17445.986328
2242.340820	17198.728516
2241.409180	17394.332031
2240.477539	17289.367188
2239.544922	17216.630859
2238.613281	17267.292969
2237.680664	17001.505859
2236.748047	17135.304688
2235.816406	17161.826172
2234.882813	17113.292969
2233.950195	16944.185547
2233.017578	16989.480469
2232.083984	17088.335938
2231.150391	16814.861328
2230.216797	17039.574219
2229.283203	16969.687500
2228.349609	17071.154297
2227.415039	17161.876953
2226.481445	17177.638672
2225.546875	16941.886719
2224.612305	16754.369141
2223.677734	17080.453125
2222.742188	17157.722656
2221.807617	17144.056641
2220.872070	16881.779297
2219.937500	16830.744141
2219.001953	16753.003906
2218.066406	16501.615234
2217.129883	16846.042969
2216.194336	16803.060547
2215.257813	16728.046875
2214.321289	16775.880859
2213.384766	16722.251953
2212.448242	16796.759766
2211.511719	16871.240234
2210.575195	16838.966797
2209.637695	16499.916016
2208.700195	16729.109375
2207.762695	16643.539063
2206.825195	16589.994141
2205.887695	16763.068359
2204.949219	16373.676758
2204.011719	16536.066406
2203.073242	16693.070313
2202.134766	16767.433594
2201.196289	16833.779297
2200.257813	16455.363281
2199.318359	16500.437500
2198.379883	16356.481445
2197.440430	16555.937500
2196.500977	16585.001953
2195.561523	16579.464844
2194.621094	16539.345703
2193.681641	16533.818359
2192.741211	16416.595703
2191.801758	16437.679688
2190.861328	16527.876953
2189.920898	16607.408203
2188.979492	16144.767578
2188.039063	16556.476563
2187.097656	16216.209961
2186.156250	16380.737305
2185.214844	16327.436523
2184.273438	16351.157227
2183.332031	16348.320313
2182.390625	16194.185547
2181.448242	16496.574219
2180.505859	16302.664063
2179.563477	16509.419922
2178.621094	16456.156250
2177.678711	15978.584961
2176.735352	16095.132813
2175.792969	16177.175781
2174.849609	16222.080078
2173.906250	16047.000977
2172.962891	16068.062500
2172.019531	16094.416016
2171.075195	15932.692383
2170.130859	16110.015625
2169.187500	16062.204102
2168.243164	16091.184570
2167.298828	15913.689453
2166.353516	15966.502930
2165.409180	15881.702148
2164.463867	15900.109375
2163.518555	15881.477539
2162.573242	15913.099609
2161.627930	15889.182617
2160.682617	16037.117188
2159.736328	15936.529297
2158.791016	15793.690430
2157.844727	15936.278320
2156.898438	15846.326172
2155.952148	15803.950195
2155.004883	15901.563477
2154.058594	15906.722656
2153.111328	15700.670898
2152.164063	15692.663086
2151.216797	15531.585938
2150.269531	16003.856445
2149.322266	15734.610352
2148.374023	15557.781250
2147.426758	15758.152344
2146.478516	15710.586914
2145.530273	15678.855469
2144.582031	15902.823242
2143.632813	15618.058594
2142.684570	15370.283203
2141.735352	15638.974609
2140.786133	15599.377930
2139.836914	15594.032227
2138.887695	15604.486328
2137.938477	15433.276367
2136.988281	15377.946289
2136.039063	15409.486328
2135.088867	15454.170898
2134.138672	15477.792969
2133.187500	15488.252930
2132.237305	15522.379883
2131.286133	15330.350586
2130.335938	15409.186523
2129.384766	15558.967773
2128.433594	15414.338867
2127.482422	15351.218750
2126.530273	15293.375000
2125.579102	15416.801758
2124.626953	15225.020508
2123.674805	15030.680664
2122.722656	15127.832031
2121.770508	15222.324219
2120.817383	15148.812500
2119.865234	15531.915039
2118.912109	15054.336914
2117.958984	15122.541992
2117.005859	15056.963867
2116.052734	15062.209961
2115.098633	15185.433594
2114.145508	15035.995117
2113.191406	14931.163086
2112.237305	15263.978516
2111.283203	15180.101563
2110.329102	15269.140625
2109.374023	15088.385742
2108.418945	15310.958008
2107.464844	14975.787109
2106.509766	15017.679688
2105.554688	14986.275391
2104.598633	15004.598633
2103.643555	14871.168945
2102.687500	15028.146484
2101.731445	15049.067383
2100.775391	14769.260742
2099.819336	14957.545898
2098.863281	15028.132813
2097.906250	14591.659180
2096.950195	14915.757813
2095.993164	14918.384766
2095.036133	14860.927734
2094.079102	14607.608398
2093.121094	14618.119141
2092.164063	14874.046875
2091.206055	14795.752930
2090.248047	14847.982422
2089.290039	14550.521484
2088.332031	14634.083984
2087.374023	14660.226563
2086.415039	14527.264648
2085.456055	14576.885742
2084.498047	14527.414063
2083.538086	14696.927734
2082.579102	14668.301758
2081.620117	14553.692383
2080.660156	14332.300781
2079.700195	14548.616211
2078.741211	14348.137695
2077.780273	14530.521484
2076.820313	14423.844727
2075.860352	14397.900391
2074.899414	14486.482422
2073.938477	14398.082031
2072.977539	14434.596680
2072.016602	14322.823242
2071.055664	14450.367188
2070.094727	14393.237305
2069.132813	14369.926758
2068.170898	14411.610352
2067.208984	14255.751953
2066.247070	14318.228516
2065.285156	14123.467773
2064.322266	14269.071289
2063.360352	14193.858398
2062.397461	14243.316406
2061.434570	14152.554688
2060.471680	14137.105469
2059.507813	14116.469727
2058.544922	14033.560547
2057.581055	14023.327148
2056.617188	14267.314453
2055.653320	14249.261719
2054.689453	14135.267578
2053.724609	14039.462891
2052.760742	14158.846680
2051.795898	14197.842773
2050.831055	13985.463867
2049.866211	13801.659180
2048.901367	14037.568359
2047.935547	13921.157227
2046.970703	13737.458984
2046.004883	13776.484375
2045.039063	13880.210938
2044.073242	13950.254883
2043.107422	13714.922852
2042.140625	13911.746094
2041.174805	13867.925781
2040.208008	13697.388672
2039.241211	13749.299805
2038.274414	13749.482422
2037.306641	13690.208984
2036.339844	13651.632813
2035.372070	13693.176758
2034.404297	13747.623047
2033.436523	13714.221680
2032.468750	13941.689453
2031.500977	13735.250000
2030.532227	13552.120117
2029.564453	13325.168945
2028.595703	13384.781250
2027.626953	13348.894531
2026.657227	13583.924805
2025.688477	13586.708008
2024.718750	13344.472656
2023.750000	13646.423828
2022.780273	13427.464844
2021.810547	13419.960938
2020.839844	13494.933594
2019.870117	13270.960938
2018.899414	13330.474609
2017.928711	13374.509766
2016.958984	13292.328125
2015.987305	13336.354492
2015.016602	13282.528320
2014.045898	13465.545898
2013.074219	13385.977539
2012.102539	13404.220703
2011.130859	13347.845703
2010.159180	13270.911133
2009.187500	13258.300781
2008.214844	13150.549805
2007.242188	13217.666016
2006.269531	13284.757813
2005.296875	13051.120117
2004.324219	13159.332031
2003.351563	13342.012695
2002.377930	12949.222656
2001.404297	12903.292969
2000.430664	13055.107422
1999.457031	12739.594727
1998.483398	13142.946289
1997.509766	13022.584961
1996.535156	13017.738281
1995.560547	13048.811523
1994.585938	13038.830078
1993.611328	13059.628906
1992.636719	12862.456055
1991.661133	12862.766602
1990.685547	12916.908203
1989.710938	12773.683594
1988.735352	12996.944336
1987.758789	12692.346680
1986.783203	12661.945313
1985.806641	12669.971680
1984.831055	12964.791992
1983.854492	12739.778320
1982.877930	12694.029297
1981.901367	12630.379883
1980.923828	12743.317383
1979.946289	12577.342773
1978.969727	12846.286133
1977.992188	12578.048828
1977.014648	12557.944336
1976.036133	12586.422852
1975.058594	12576.546875
1974.080078	12482.334961
1973.101563	12779.118164
1972.123047	12661.908203
1971.144531	12511.531250
1970.166016	12519.553711
1969.186523	12274.773438
1968.208008	12372.190430
1967.228516	12543.599609
1966.249023	12357.642578
1965.268555	12289.129883
1964.289063	12463.012695
1963.308594	12425.114258
1962.329102	12354.074219
1961.348633	12362.106445
1960.367188	12232.462891
1959.386719	12268.552734
1958.406250	12319.920898
1957.424805	12343.240234
1956.443359	12364.003906
1955.461914	12081.635742
1954.480469	12257.791992
1953.499023	12380.412109
1952.516602	12240.759766
1951.534180	12202.974609
1950.552734	12116.846680
1949.569336	12252.126953
1948.586914	12148.210938
1947.604492	12321.591797
1946.621094	12329.601563
1945.637695	12368.122070
1944.655273	12231.206055
1943.670898	12218.890625
1942.687500	12041.384766
1941.704102	12110.417969
1940.719727	12151.480469
1939.735352	11974.079102
1938.750977	11971.975586
1937.766602	11982.569336
1936.782227	12109.941406
1935.796875	11935.208008
1934.811523	12077.770508
1933.826172	11918.328125
1932.840820	11949.214844
1931.855469	11873.555664
1930.870117	11772.561523
1929.883789	11773.028320
1928.897461	11996.592773
1927.911133	11951.393555
1926.924805	11954.362305
1925.938477	11942.125000
1924.951172	11648.682617
1923.964844	11849.273438
1922.977539	11882.645508
1921.990234	11774.208984
1921.002930	11724.038086
1920.014648	11671.353516
1919.027344	11659.177734
1918.039063	11669.779297
1917.050781	11670.257813
1916.062500	11597.381836
1915.074219	11693.972656
1914.084961	11540.204102
1913.096680	11593.791992
1912.107422	11488.120117
1911.118164	11463.354492
1910.128906	11607.889648
1909.138672	11429.006836
1908.149414	11454.780273
1907.159180	11639.646484
1906.168945	11718.397461
1905.178711	11516.898438
1904.188477	11383.619141
1903.198242	11540.605469
1902.207031	11425.031250
1901.215820	11380.133789
1900.224609	11463.889648
1899.233398	11547.615234
1898.242188	11606.096680
1897.250000	11364.561523
1896.258789	11254.177734
1895.266602	11131.232422
1894.274414	11179.666016
1893.282227	11187.774414
1892.289063	11336.930664
1891.296875	11040.291992
1890.303711	11053.455078
1889.310547	11257.937500
1888.317383	11205.615234
1887.324219	11100.463867
1886.330078	11095.993164
1885.336914	11078.945313
1884.342773	11137.358398
1883.348633	10934.215820
1882.354492	10919.717773
1881.359375	11030.918945
1880.365234	11018.921875
1879.370117	10969.233398
1878.375000	11022.577148
1877.379883	10877.445313
1876.384766	11031.251953
1875.389648	10820.875977
1874.393555	11047.451172
1873.397461	10927.517578
1872.401367	10953.201172
1871.405273	10906.100586
1870.409180	10665.821289
1869.412109	10646.381836
1868.416016	10714.732422
1867.418945	10780.551758
1866.421875	10793.694336
1865.423828	10583.726563
1864.426758	10672.089844
1863.428711	10620.089844
1862.431641	10608.195313
1861.433594	10603.819336
1860.435547	10496.756836
1859.436523	10527.459961
1858.438477	10635.766602
1857.439453	10443.641602
1856.440430	10494.359375
1855.441406	10382.403320
1854.442383	10633.268555
1853.443359	10661.411133
1852.443359	10444.438477
1851.443359	10387.582031
1850.444336	10458.254883
1849.443359	10351.419922
1848.443359	10279.613281
1847.443359	10375.254883
1846.442383	10335.948242
1845.441406	10326.629883
1844.440430	10407.225586
1843.439453	10233.089844
1842.438477	10221.296875
1841.436523	10336.814453
1840.434570	10317.519531
1839.432617	10320.688477
1838.430664	10313.876953
1837.428711	10329.517578
1836.426758	10295.271484
1835.423828	10275.999023
1834.420898	10152.020508
1833.417969	10252.428711
1832.415039	10195.788086
1831.412109	10241.332031
1830.408203	10100.006836
1829.404297	10095.731445
1828.400391	10158.701172
1827.396484	10007.503906
1826.392578	10177.519531
1825.388672	10101.045898
1824.383789	9962.381836
1823.378906	9965.597656
1822.374023	9876.762695
1821.369141	9882.479492
1820.364258	9826.019531
1819.358398	9854.122070
1818.352539	9869.783203
1817.346680	9942.608398
1816.340820	9988.070313
1815.334961	9909.276367
1814.329102	9999.445313
1813.322266	9739.352539
1812.315430	9645.743164
1811.308594	9783.086914
1810.301758	9706.879883
1809.294922	9787.074219
1808.287109	9728.264648
1807.279297	9867.976563
1806.271484	9739.709961
1805.263672	9708.222656
1804.255859	9691.625977
1803.247070	9734.542969
1802.239258	9700.593750
1801.230469	9584.860352
1800.221680	9625.294922
1799.212891	9725.179688
1798.203125	9552.524414
1797.194336	9533.496094
1796.184570	9668.013672
1795.174805	9604.403320
1794.165039	9709.153320
1793.155273	9573.778320
1792.144531	9564.660156
1791.134766	9481.317383
1790.124023	9553.853516
1789.113281	9606.577148
1788.102539	9520.796875
1787.090820	9400.431641
1786.080078	9482.817383
1785.068359	9382.274414
1784.056641	9407.795898
1783.044922	9354.245117
1782.032227	9280.949219
1781.020508	9387.980469
1780.007813	9290.010742
1778.995117	9436.504883
1777.982422	9323.749023
1776.969727	9307.289063
1775.957031	9532.667969
1774.943359	9493.970703
1773.929688	9198.738281
1772.916016	9120.651367
1771.902344	9294.117188
1770.888672	9359.039063
1769.874023	9308.080078
1768.860352	9409.945313
1767.845703	9179.108398
1766.831055	9128.207031
1765.816406	9119.199219
1764.800781	9228.413086
1763.786133	9332.662109
1762.770508	9151.282227
1761.754883	9157.044922
1760.739258	9106.199219
1759.722656	9134.113281
1758.707031	9120.192383
1757.690430	9197.290039
1756.673828	9139.093750
1755.657227	8997.313477
1754.640625	9000.634766
1753.623047	9023.620117
1752.606445	8953.206055
1751.588867	8954.075195
1750.571289	8984.425781
1749.552734	8766.673828
1748.535156	8848.620117
1747.517578	8815.129883
1746.499023	8806.201172
1745.480469	8944.550781
1744.461914	8729.452148
1743.442383	8764.708984
1742.423828	8802.407227
1741.404297	8871.978516
1740.384766	8760.044922
1739.365234	8680.027344
1738.345703	8823.127930
1737.326172	8804.404297
1736.305664	8695.012695
1735.285156	8752.275391
1734.264648	8799.717773
1733.244141	8781.010742
1732.223633	8833.328125
1731.202148	8679.953125
1730.180664	8666.171875
1729.160156	8750.300781
1728.137695	8606.809570
1727.116211	8448.687500
1726.094727	8571.950195
1725.072266	8634.021484
1724.049805	8622.707031
1723.027344	8464.693359
1722.004883	8604.976563
1720.982422	8552.121094
1719.958984	8609.251953
1718.935547	8436.691406
1717.912109	8615.964844
1716.888672	8404.385742
1715.865234	8466.383789
1714.840820	8333.036133
1713.817383	8297.379883
1712.792969	8381.329102
1711.768555	8367.638672
1710.743164	8305.156250
1709.718750	8284.165039
1708.693359	8426.591797
1707.668945	8371.446289
1706.643555	8369.958008
1705.617188	8329.467773
1704.591797	8315.801758
1703.565430	8426.415039
1702.540039	8276.299805
1701.513672	8182.263184
1700.487305	8224.647461
1699.459961	8269.451172
1698.433594	8272.849609
1697.406250	8371.180664
1696.378906	8162.822266
1695.351563	8304.936523
1694.324219	8330.221680
1693.296875	8253.333984
1692.268555	8200.792969
1691.240234	8206.628906
1690.211914	8061.730957
1689.183594	8111.341797
1688.155273	8054.001953
1687.125977	8118.175293
1686.096680	7922.376465
1685.067383	7957.401855
1684.038086	7972.985840
1683.008789	8039.554688
1681.978516	8084.250000
1680.949219	8053.684082
1679.918945	7998.860352
1678.888672	7924.644531
1677.858398	7881.992188
1676.827148	7800.545898
1675.795898	7755.505371
1674.765625	7872.934082
1673.734375	7840.017090
1672.702148	7896.792480
1671.670898	7832.378418
1670.639648	7828.561035
1669.607422	7686.660645
1668.575195	7661.070801
1667.542969	7686.344727
1666.509766	7658.342285
1665.477539	7594.037109
1664.444336	7667.715820
1663.411133	7731.687988
1662.377930	7570.623535
1661.344727	7554.760742
1660.311523	7623.555176
1659.277344	7639.124023
1658.243164	7560.394043
1657.208984	7667.827637
1656.174805	7649.542969
1655.140625	7631.264160
1654.105469	7637.152344
1653.070313	7572.984863
1652.035156	7392.910645
1651.000000	7430.229004
1649.964844	7354.060059
1648.928711	7509.652832
1647.893555	7416.602051
1646.857422	7494.910156
1645.821289	7392.244141
1644.784180	7494.649902
1643.748047	7416.137207
1642.710938	7540.203613
1641.673828	7382.150879
1640.636719	7532.693359
1639.599609	7386.748047
1638.562500	7448.080078
1637.524414	7299.791992
1636.486328	7353.891113
1635.448242	7463.361328
1634.410156	7252.543945
1633.372070	7104.395508
1632.333008	7141.640137
1631.293945	7154.805664
1630.254883	7136.685547
1629.215820	7202.772949
1628.176758	7155.786621
1627.136719	7072.743652
1626.097656	7102.739258
1625.057617	7190.419922
1624.017578	7054.535645
1622.977539	7113.354980
1621.936523	7136.112793
1620.895508	7175.677734
1619.855469	7104.742188
1618.814453	6964.189941
1617.772461	7140.621582
1616.731445	7204.162598
1615.689453	7037.265137
1614.648438	7060.005371
1613.606445	6953.175293
1612.563477	6959.130371
1611.521484	7092.200195
1610.479492	7227.620117
1609.436523	6890.666992
1608.393555	6985.322266
1607.350586	6960.106934
1606.306641	7069.093262
1605.263672	6854.597168
1604.219727	6896.490723
1603.175781	6878.493164
1602.131836	6812.609863
1601.087891	6844.910645
1600.043945	6826.931152
1598.999023	6794.598145
1597.954102	6867.562988
1596.909180	6835.233398
1595.864258	6750.291016
1594.818359	6801.699219
1593.773438	6700.054199
1592.727539	6703.637695
1591.681641	6733.513184
1590.635742	6784.886719
1589.588867	6747.831543
1588.542969	6703.622070
1587.496094	6731.086426
1586.449219	6811.080566
1585.402344	6690.475098
1584.355469	6777.609375
1583.307617	6726.271973
1582.259766	6612.904785
1581.212891	6542.526855
1580.164063	6679.721680
1579.116211	6473.400391
1578.068359	6543.785156
1577.019531	6611.759766
1575.970703	6415.096191
1574.921875	6564.107910
1573.873047	6548.634766
1572.823242	6587.967285
1571.774414	6591.552734
1570.724609	6549.882324
1569.674805	6541.565918
1568.625000	6352.302246
1567.574219	6479.711914
1566.524414	6483.311523
1565.473633	6415.520996
1564.422852	6466.714844
1563.372070	6348.996094
1562.320313	6431.102051
1561.269531	6292.029785
1560.217773	6352.718262
1559.166016	6456.172363
1558.114258	6326.676270
1557.062500	6463.364746
1556.009766	6284.021484
1554.957031	6358.907715
1553.904297	6326.894043
1552.851563	6446.861816
1551.798828	6383.979980
1550.746094	6349.604492
1549.692383	6341.347168
1548.638672	6337.837891
1547.584961	6123.185547
1546.531250	6304.730469
1545.476563	6249.054688
1544.422852	6252.677246
1543.368164	6168.581543
1542.313477	6221.992188
1541.257813	6287.232910
1540.203125	6184.220215
1539.147461	6202.063477
1538.092773	6172.528320
1537.037109	6232.993652
1535.980469	6146.637695
1534.924805	6086.352539
1533.868164	6116.030762
1532.812500	6202.492676
1531.755859	6170.622070
1530.698242	6108.009277
1529.641602	6333.971680
1528.584961	6257.163086
1527.527344	6111.815918
1526.469727	6221.823242
1525.412109	6246.705566
1524.353516	6139.246582
1523.295898	6211.386719
1522.237305	6174.838867
1521.178711	6173.730957
1520.120117	6174.984375
1519.061523	6044.023926
1518.001953	6002.810547
1516.943359	6107.937500
1515.883789	6038.410156
1514.824219	6058.559570
1513.763672	6000.860352
1512.704102	6094.119141
1511.643555	5977.483887
1510.583008	6032.991699
1509.522461	6034.265625
1508.461914	6040.252441
1507.400391	5956.697266
1506.339844	6158.231934
1505.278320	5996.956055
1504.216797	6059.464355
1503.155273	5966.546875
1502.092773	6026.683594
1501.031250	6046.784668
1499.968750	5935.091797
1498.906250	6018.729980
1497.843750	6050.583496
1496.780273	6058.904297
1495.717773	6104.848633
1494.654297	6023.810059
1493.590820	6062.690918
1492.527344	6118.010254
1491.462891	6133.360352
1490.399414	6212.141602
1489.334961	6121.759277
1488.270508	6125.355957
1487.206055	6166.523438
1486.140625	6193.588867
1485.076172	6110.315918
1484.010742	6165.544922
1482.945313	6392.053711
1481.879883	6376.827637
1480.814453	6305.309082
1479.748047	6405.022949
1478.681641	6450.768555
1477.615234	6409.752441
1476.548828	6567.994141
1475.482422	6508.222168
1474.415039	6835.099121
1473.348633	6730.787109
1472.281250	6778.765625
1471.213867	6922.745605
1470.145508	6984.720703
1469.078125	7210.549316
1468.009766	7387.142578
1466.941406	7498.145020
1465.873047	7529.553223
1464.804688	7743.422852
1463.735352	7788.808594
1462.666992	7988.522949
1461.597656	8195.179688
1460.528320	8404.098633
1459.458008	8563.859375
1458.388672	8690.845703
1457.318359	8591.149414
1456.248047	8907.303711
1455.177734	8816.946289
1454.107422	8843.380859
1453.037109	8713.375977
1451.965820	8553.070313
1450.894531	8532.858398
1449.823242	8521.987305
1448.751953	8527.452148
1447.679688	8495.590820
1446.608398	8356.457031
1445.536133	8289.661133
1444.463867	8194.911133
1443.390625	8184.110352
1442.318359	8084.751465
1441.245117	8064.653320
1440.171875	8123.772949
1439.098633	8064.076172
1438.025391	7941.520508
1436.952148	7723.541016
1435.877930	7703.524414
1434.803711	7595.064941
1433.729492	7419.154785
1432.655273	7178.157227
1431.581055	6867.455566
1430.505859	6668.511230
1429.430664	6451.034180
1428.355469	6275.486816
1427.280273	6265.056641
1426.205078	5824.638184
1425.128906	5877.036621
1424.052734	5873.653320
1422.976563	5723.920410
1421.900391	5787.920898
1420.823242	5714.889160
1419.747070	5518.830078
1418.669922	5380.875000
1417.592773	5372.941406
1416.515625	5504.240723
1415.437500	5435.964844
1414.360352	5518.492188
1413.282227	5355.148926
1412.204102	5201.139160
1411.125977	5290.618652
1410.046875	5222.441895
1408.968750	5059.269043
1407.889648	5083.844238
1406.810547	5038.908691
1405.731445	5056.529297
1404.651367	5076.459473
1403.572266	5110.275391
1402.492188	5083.886719
1401.412109	5082.968750
1400.332031	5021.880859
1399.250977	4902.969727
1398.170898	5033.947754
1397.089844	4919.702637
1396.008789	5013.628906
1394.927734	4945.670898
1393.845703	5025.687988
1392.764648	4950.818359
1391.682617	4984.586914
1390.600586	4815.021973
1389.518555	4839.562500
1388.435547	4859.475098
1387.353516	4874.761230
1386.270508	4850.792480
1385.187500	4746.038086
1384.104492	4828.267090
1383.020508	4910.466309
1381.937500	4958.028809
1380.853516	4887.930664
1379.769531	4866.290527
1378.685547	4916.140137
1377.600586	4929.083984
1376.516602	4824.465820
1375.431641	4837.420898
1374.346680	4834.242188
1373.261719	4736.608398
1372.175781	4807.156738
1371.090820	4808.590332
1370.004883	4853.771484
1368.918945	4694.046387
1367.833008	4799.076172
1366.746094	4731.470215
1365.660156	4742.118652
1364.573242	4925.297852
1363.486328	4846.205078
1362.399414	4843.028809
1361.311523	4849.049805
1360.224609	4797.598633
1359.136719	4743.867676
1358.048828	4646.494141
1356.959961	4723.770020
1355.872070	4649.406738
1354.783203	4634.784668
1353.695313	4670.686523
1352.606445	4516.016602
1351.516602	4602.426758
1350.427734	4734.707031
1349.337891	4589.287109
1348.248047	4535.688965
1347.158203	4468.347168
1346.068359	4522.579102
1344.978516	4670.804199
1343.887695	4601.181152
1342.796875	4696.618164
1341.706055	4686.600098
1340.615234	4633.050781
1339.523438	4694.065918
1338.432617	4583.271973
1337.340820	4639.693359
1336.249023	4416.755859
1335.156250	4502.946777
1334.064453	4552.485352
1332.971680	4476.142578
1331.878906	4608.035156
1330.786133	4554.585449
1329.693359	4588.067383
1328.600586	4438.596680
1327.506836	4517.813965
1326.413086	4555.855957
1325.319336	4632.737305
1324.225586	4625.041992
1323.130859	4592.217773
1322.036133	4579.963867
1320.941406	4691.042480
1319.846680	4687.908203
1318.751953	4755.548828
1317.657227	4667.947266
1316.561523	4774.363770
1315.465820	4791.751953
1314.370117	4964.267090
1313.273438	4924.590332
1312.177734	5008.077148
1311.081055	5082.412598
1309.984375	5124.805176
1308.887695	5272.030273
1307.791016	5517.193848
1306.693359	5527.584961
1305.595703	5592.645508
1304.498047	5789.786133
1303.400391	5779.625977
1302.302734	5963.000000
1301.204102	5800.292480
1300.105469	5762.823242
1299.007813	5643.446777
1297.908203	5364.851563
1296.809570	5309.283203
1295.709961	5337.885742
1294.611328	5211.850098
1293.511719	4953.996094
1292.411133	5000.831543
1291.311523	4959.015137
1290.210938	4830.866699
1289.110352	4755.017578
1288.009766	4620.138184
1286.909180	4628.382813
1285.808594	4643.436523
1284.707031	4626.701172
1283.605469	4521.449707
1282.503906	4575.093262
1281.402344	4465.351074
1280.299805	4584.773926
1279.198242	4291.348633
1278.095703	4288.300781
1276.993164	4251.244141
1275.890625	4293.542969
1274.787109	4408.354492
1273.683594	4221.733398
1272.580078	4331.983887
1271.476563	4127.322266
1270.373047	4194.517578
1269.269531	4125.821289
1268.165039	4039.037842
1267.060547	4006.612793
1265.956055	4091.885986
1264.850586	3935.008789
1263.746094	3977.278320
1262.640625	3877.028076
1261.535156	3898.938477
1260.429688	3927.624268
1259.324219	3881.694824
1258.217773	3880.988525
1257.111328	3905.141602
1256.004883	3940.583252
1254.898438	3955.679688
1253.791992	4049.824707
1252.684570	4026.505127
1251.577148	3955.778320
1250.469727	4006.979980
1249.362305	3985.937256
1248.254883	3955.875488
1247.146484	3946.130371
1246.038086	3898.040039
1244.929688	3915.373535
1243.821289	3844.755859
1242.711914	3855.328857
1241.603516	3784.747559
1240.494141	3871.954834
1239.384766	3826.182861
1238.274414	3852.521240
1237.165039	3757.213379
1236.054688	3711.486816
1234.944336	3854.919922
1233.833984	3608.826416
1232.723633	3716.211426
1231.612305	3632.266846
1230.500977	3690.106689
1229.389648	3644.441406
1228.278320	3661.771240
1227.166992	3649.859619
1226.054688	3707.653564
1224.943359	3653.025635
1223.831055	3717.540283
1222.717773	3707.874023
1221.605469	3781.342041
1220.492188	3746.957031
1219.379883	3779.963379
1218.266602	3675.978760
1217.152344	3594.483154
1216.039063	3663.414551
1214.924805	3586.439453
1213.810547	3626.176025
1212.696289	3520.069580
1211.582031	3582.234375
1210.467773	3532.241943
1209.352539	3471.055908
1208.237305	3508.534668
1207.122070	3438.409180
1206.006836	3415.371338
1204.890625	3477.486328
1203.774414	3346.917969
1202.658203	3402.302979
1201.541992	3394.963867
1200.425781	3454.797852
1199.308594	3418.349609
1198.191406	3460.251465
1197.074219	3385.772949
1195.957031	3416.478271
1194.839844	3355.456299
1193.721680	3352.607422
1192.603516	3278.202148
1191.485352	3299.961182
1190.367188	3382.066162
1189.249023	3343.454834
1188.129883	3316.030029
1187.010742	3290.849121
1185.891602	3361.726807
1184.772461	3365.579346
1183.652344	3257.785889
1182.533203	3308.538086
1181.413086	3267.756348
1180.292969	3296.171143
1179.171875	3291.106445
1178.051758	3283.812500
1176.930664	3229.681885
1175.809570	3171.110840
1174.688477	3264.175781
1173.566406	3310.392822
1172.445313	3303.101563
1171.323242	3264.614990
1170.201172	3337.542236
1169.079102	3238.917969
1167.956055	3483.316406
1166.833984	3442.597656
1165.710938	3555.512939
1164.587891	3568.218750
1163.464844	3598.724121
1162.340820	3482.358398
1161.216797	3490.620605
1160.092773	3394.335693
1158.968750	3411.506592
1157.844727	3350.847412
1156.719727	3368.019531
1155.595703	3338.508301
1154.470703	3277.895264
1153.345703	3190.641846
1152.219727	3252.259766
1151.094727	3116.178711
1149.968750	3226.642334
1148.842773	3161.664063
1147.716797	3247.660156
1146.589844	3393.550049
1145.462891	3506.100586
1144.336914	3647.452148
1143.209961	3870.826660
1142.082031	4125.168945
1140.955078	4284.068359
1139.827148	4394.135254
1138.699219	4136.203613
1137.571289	4004.689941
1136.443359	3864.361084
1135.314453	3611.098145
1134.185547	3574.997070
1133.056641	3401.604492
1131.927734	3219.418701
1130.798828	3125.850586
1129.668945	3092.077393
1128.539063	3009.631348
1127.409180	2843.138184
1126.279297	2809.435059
1125.149414	2848.731689
1124.018555	2795.137695
1122.887695	2681.867676
1121.756836	2727.797363
1120.625977	2665.414063
1119.494141	2660.506104
1118.362305	2673.274414
1117.231445	2597.681396
1116.098633	2570.703125
1114.966797	2632.058838
1113.833984	2594.045410
1112.702148	2485.412598
1111.569336	2484.956787
1110.435547	2473.468750
1109.302734	2565.670654
1108.168945	2633.575928
1107.036133	2487.545166
1105.901367	2431.967285
1104.767578	2528.517578
1103.633789	2539.074219
1102.499023	2531.997559
1101.364258	2436.793457
1100.229492	2416.520752
1099.094727	2574.653076
1097.958984	2470.685059
1096.823242	2542.885498
1095.687500	2527.010498
1094.551758	2526.546631
1093.416016	2519.481689
1092.279297	2631.220215
1091.142578	2602.142334
1090.005859	2599.465576
1088.869141	2671.549072
1087.731445	2816.153076
1086.594727	2855.200195
1085.457031	2964.555664
1084.319336	3003.560791
1083.180664	3106.258301
1082.042969	3112.277100
1080.904297	3225.896729
1079.765625	3361.430176
1078.626953	3395.935547
1077.487305	3270.209717
1076.348633	3120.392090
1075.208984	3062.775879
1074.069336	2983.244873
1072.929688	2943.219971
1071.789063	2922.944580
1070.648438	2946.523438
1069.508789	2860.495850
1068.367188	2892.843506
1067.226563	2988.722168
1066.085938	2999.126709
1064.944336	2921.913574
1063.802734	2969.555176
1062.661133	2861.722168
1061.518555	2758.306885
1060.376953	2797.197021
1059.234375	2687.266357
1058.091797	2629.886230
1056.948242	2605.339844
1055.805664	2707.655518
1054.662109	2536.593506
1053.518555	2544.872314
1052.375000	2430.736816
1051.231445	2430.289795
1050.086914	2370.844727
1048.942383	2394.440430
1047.797852	2446.423340
1046.653320	2467.812256
1045.508789	2500.110840
1044.363281	2632.820068
1043.217773	2830.961182
1042.072266	3142.509033
1040.926758	3399.394531
1039.780273	3654.003662
1038.634766	3607.528320
1037.488281	3591.599365
1036.341797	3486.284424
1035.194336	3176.098389
1034.047852	2890.000977
1032.900391	2702.067383
1031.752930	2562.134033
1030.605469	2459.282959
1029.457031	2256.286865
1028.308594	2205.789307
1027.161133	2159.664551
1026.011719	2137.500000
1024.863281	2117.519775
1023.714844	2017.039307
1022.565430	2079.756592
1021.416016	2118.524902
1020.266602	2074.641113
1019.116211	2111.221680
1017.966797	2091.267822
1016.816406	2121.311035
1015.666016	2210.016357
1014.514648	2244.371826
1013.364258	2254.819580
1012.212891	2282.638428
1011.061523	2258.331299
1009.910156	2296.994385
1008.758789	2272.693604
1007.606445	2372.107178
1006.454102	2380.349365
1005.301758	2475.367188
1004.149414	2585.533691
1002.997070	2457.105225
1001.843750	2330.892334
1000.690430	2271.929932
999.537109	2256.338623
998.383789	2175.740723
997.229492	2082.172607
996.076172	2060.125732
994.921875	1957.949707
993.766602	1881.796997
992.612305	1851.138672
991.457031	1898.420044
990.302734	1813.662964
989.146484	1828.475464
987.991211	1735.108521
986.835938	1708.831421
985.679688	1708.516113
984.523438	1729.823486
983.367188	1755.446777
982.210938	1727.023560
981.053711	1705.093872
979.896484	1739.349976
978.739258	1702.304077
977.582031	1695.510132
976.423828	1842.042114
975.266602	1774.770264
974.108398	1815.457642
972.950195	1853.971558
971.791016	1756.524048
970.632813	1799.349487
969.473633	1742.932617
968.314453	1746.924072
967.155273	1781.102173
965.995117	1677.289917
964.835938	1646.802979
963.675781	1689.600708
962.515625	1680.669800
961.354492	1688.976440
960.194336	1656.355591
959.033203	1671.124146
957.872070	1696.652588
956.710938	1752.309570
955.548828	1693.873047
954.387695	1727.990723
953.225586	1660.974121
952.063477	1768.223145
950.901367	1709.826660
949.738281	1696.608521
948.575195	1696.294800
947.412109	1732.523193
946.249023	1663.430420
945.085938	1613.701782
943.921875	1628.441772
942.757813	1567.998047
941.593750	1524.757202
940.429688	1569.565186
939.265625	1571.421509
938.100586	1545.374512
936.935547	1562.256226
935.770508	1536.220459
934.604492	1535.936157
933.439453	1503.480469
932.273438	1449.593018
931.107422	1470.764404
929.941406	1509.076538
928.774414	1478.792725
927.607422	1499.946777
926.440430	1542.516724
925.273438	1580.786987
924.106445	1537.662476
922.938477	1580.201660
921.771484	1558.500977
920.602539	1588.178101
919.434570	1647.804077
918.266602	1626.102783
917.097656	1610.827148
915.928711	1629.778076
914.759766	1708.597656
913.590820	1693.315063
912.420898	1816.983765
911.250977	1861.528931
910.081055	1861.183960
908.911133	1924.932373
907.740234	2118.955566
906.570313	2150.597656
905.399414	2280.449463
904.228516	2397.443848
903.056641	2661.672607
901.885742	2885.256104
900.713867	2982.870117
899.541992	3165.778564
898.370117	3416.871338
897.197266	3527.126953
896.024414	3609.624268
894.852539	3636.666748
893.678711	3644.517578
892.505859	3665.150635
891.332031	3756.082764
890.159180	3819.289307
888.985352	3786.635254
887.810547	3421.818848
886.636719	3142.294678
885.461914	2760.704590
884.287109	2470.765869
883.112305	2259.661133
881.937500	2061.398682
880.761719	1992.953613
879.585938	1990.457153
878.410156	1979.456909
877.234375	2053.491455
876.057617	2159.378906
874.881836	2178.102783
873.705078	2375.284668
872.528320	2693.472168
871.350586	2949.951172
870.173828	3380.453857
868.996094	3579.388672
867.818359	3657.260742
866.639648	3469.826416
865.461914	3218.806641
864.283203	2963.637207
863.104492	2632.205078
861.925781	2281.810303
860.747070	2234.740967
859.567383	1969.344116
858.387695	1896.916626
857.208008	1805.444336
856.028320	1754.260620
854.847656	1692.504639
853.666992	1573.588501
852.486328	1550.003662
851.305664	1517.959106
850.125000	1477.459595
848.943359	1578.767822
847.761719	1508.649048
846.580078	1529.523804
845.398438	1499.627686
844.215820	1429.562500
843.034180	1511.756104
841.851563	1496.677246
840.667969	1487.944702
839.485352	1504.573364
838.301758	1514.857300
837.118164	1546.261230
835.934570	1535.413696
834.750977	1606.922241
833.566406	1712.183228
832.381836	1735.083618
831.197266	1836.060669
830.012695	2012.960815
828.828125	2162.369873
827.642578	2381.328125
826.457031	2568.572021
825.271484	2766.288574
824.084961	2944.958740
822.899414	3047.686035
821.712891	2842.713135
820.526367	2869.573486
819.339844	2687.881104
818.152344	2537.847656
816.964844	2465.781006
815.777344	2263.211914
814.589844	2178.593506
813.402344	2230.801025
812.213867	2230.385498
811.025391	2181.583984
809.836914	2277.931885
808.648438	2212.315674
807.458984	2104.672607
806.269531	1976.047607
805.080078	1826.452515
803.890625	1721.042480
802.701172	1634.580566
801.510742	1695.193726
800.320313	1654.973633
799.129883	1650.465576
797.939453	1549.384888
796.748047	1540.699951
795.556641	1511.031494
794.365234	1609.368286
793.173828	1495.783081
791.981445	1470.334473
790.790039	1440.701050
789.597656	1453.012573
788.404297	1427.585938
787.211914	1385.401367
786.018555	1353.710083
784.825195	1357.647827
783.631836	1210.762451
782.438477	1260.801147
781.244141	1304.539185
780.050781	1325.231445
778.856445	1339.636475
777.661133	1339.386475
776.466797	1267.994995
775.271484	1380.726929
774.076172	1317.720581
772.880859	1342.569458
771.685547	1223.140991
770.489258	1256.359863
769.292969	1283.296143
768.096680	1287.235962
766.900391	1328.781128
765.703125	1251.244263
764.506836	1313.665527
763.309570	1311.332153
762.111328	1329.876709
760.914063	1279.532471
759.715820	1385.727417
758.517578	1366.689575
757.319336	1406.071411
756.121094	1441.266846
754.921875	1313.789429
753.722656	1323.968872
752.523438	1336.229126
751.324219	1308.884766
750.125000	1339.897461
748.924805	1329.229980
747.724609	1335.230591
746.524414	1430.783203
745.323242	1390.952759
744.123047	1419.838989
742.921875	1392.514282
741.720703	1319.415527
740.518555	1323.330322
739.317383	1289.797729
738.115234	1210.519287
736.913086	1168.702148
735.710938	1197.591675
734.507813	1226.470459
733.304688	1138.949341
732.101563	1151.204224
730.898438	1236.170410
729.695313	1140.387573
728.491211	1096.560913
727.287109	1133.731567
726.083008	1129.367432
724.878906	1151.988281
723.673828	1139.321167
722.468750	1134.958130
721.263672	1004.052917
720.058594	1090.977295
718.853516	1065.888550
717.647461	1042.882446
716.441406	995.009644
715.235352	1056.999878
714.028320	1048.513306
712.822266	1023.455750
711.615234	1025.335449
710.408203	1010.646545
709.200195	1047.728271
707.993164	966.793396
706.785156	1003.869324
705.577148	1063.695313
704.369141	1003.493347
703.160156	1019.854736
701.951172	914.181213
700.742188	992.589966
699.533203	992.403992
698.324219	959.144165
697.114258	913.496277
695.904297	991.846252
694.694336	906.956055
693.484375	958.425354
692.273438	991.288696
691.062500	935.353333
689.851563	1001.239136
688.640625	916.426514
687.428711	969.909241
686.217773	893.387146
685.005859	957.168396
683.792969	928.114258
682.581055	936.188538
681.368164	929.827881
680.155273	1043.025879
678.942383	991.307007
677.729492	960.212952
676.515625	908.528931
675.301758	926.896362
674.087891	945.256958
672.874023	910.076660
671.659180	949.019470
670.444336	905.618713
669.229492	915.737976
668.014648	940.255493
666.799805	962.706787
665.583984	935.789246
664.368164	943.838745
663.152344	923.102539
661.935547	896.207458
660.719727	906.314880
659.502930	922.582703
658.286133	856.669861
657.068359	883.210693
655.851563	905.634338
654.633789	979.379700
653.416016	890.924438
652.198242	896.914429
650.979492	948.047241
649.760742	923.249146
648.541992	937.434692
647.323242	918.800476
646.103516	902.223816
644.884766	932.806152
643.665039	942.879517
642.445313	881.221741
641.224609	907.692749
640.004883	936.202271
638.784180	886.869568
637.563477	894.894165
636.341797	843.540222
635.121094	890.463623
633.899414	878.016296
632.677734	896.267639
631.456055	844.951904
630.233398	875.475586
629.010742	887.581665
627.788086	862.877930
626.565430	885.203491
625.342773	907.520630
624.119141	866.478271
622.895508	892.876831
621.671875	923.351013
620.447266	878.243896
619.223633	843.363953
617.999023	859.538513
616.774414	845.087830
615.548828	875.542175
614.324219	852.931824
613.098633	832.370056
611.873047	828.133911
610.647461	852.450317
609.420898	852.289795
608.194336	850.090759
606.967773	860.121765
605.741211	882.375793
604.514648	835.348633
603.287109	841.302490
602.059570	851.327393
600.832031	836.913086
599.603516	869.329895
598.375977	822.349243
597.147461	812.018616
595.918945	858.664917
594.689453	832.056396
593.460938	862.409424
592.231445	827.675659
591.001953	813.287170
589.771484	863.954834
588.541992	774.364136
587.311523	837.212280
586.081055	861.434753
584.850586	792.208069
583.619141	792.058716
582.387695	854.856079
581.156250	830.333069
579.924805	828.146729
578.693359	821.902405
577.460938	840.008484
576.228516	811.449341
574.996094	821.437500
573.762695	811.143311
572.530273	835.320007
571.296875	792.593506
570.063477	877.565857
568.829102	806.478821
567.595703	834.689880
566.361328	812.251221
565.126953	824.249023
563.891602	856.490295
562.657227	815.840332
561.421875	777.229675
560.186523	795.295837
558.951172	783.006104
557.714844	797.018555
556.479492	811.025635
555.243164	818.960999
554.005859	837.002136
552.769531	834.822693
551.532227	836.686035
550.294922	806.219055
549.057617	775.763550
547.820313	856.410461
546.582031	791.626221
545.343750	789.457581
544.105469	847.850525
542.866211	815.397400
541.627930	795.064087
540.388672	756.580444
539.149414	825.021118
537.910156	875.284912
536.669922	842.856995
535.429688	846.729797
534.189453	844.554138
532.949219	844.394470
531.708008	842.219971
530.466797	878.321777
529.225586	821.760437
527.984375	813.550110
526.743164	853.663452
525.500977	845.450134
524.258789	835.227234
523.016602	798.849426
521.773438	881.183594
520.530273	810.616028
519.287109	822.529175
518.043945	832.427002
516.800781	884.537720
515.556641	862.261108
514.312500	831.954651
513.068359	863.944031
511.824219	849.718994
510.579102	835.499329
509.333984	805.220764
508.088867	823.137207
506.843750	794.879639
505.597656	838.880798
504.351563	866.813171
503.105469	850.600037
501.859375	874.507996
500.612305	864.315552
499.365234	836.082031
498.118164	886.039063
496.871094	891.883972
495.624023	935.799805
494.375977	917.591309
493.127930	877.355652
491.879883	919.246460
490.630859	921.074707
489.381836	1031.007813
488.132813	976.769897
486.883789	916.548889
485.634766	944.386658
484.384766	892.196289
483.134766	954.029114
481.884766	951.848633
480.633789	933.674500
479.383789	933.497498
478.132813	917.332214
476.880859	889.183960
475.629883	887.017639
474.377930	894.839111
473.125977	894.669434
471.874023	874.533264
470.622070	856.401001
469.369141	810.333008
468.116211	919.932678
466.863281	887.835999
465.610352	889.662354
464.356445	887.499207
463.102539	941.168884
461.848633	954.945740
460.594727	890.980652
459.339844	984.476379
458.085938	1020.154358
456.831055	1105.621582
455.575195	1119.353882
454.320313	1194.812866
453.064453	1194.586182
451.808594	1146.584961
450.552734	1062.778076
449.295898	1132.220825
448.039063	1014.627380
446.782227	962.718445
445.525391	990.377625
444.267578	958.376221
443.010742	956.206238
441.752930	926.210999
440.494141	868.406311
439.236328	927.846008
437.977539	864.103516
436.718750	865.925476
435.459961	841.932678
434.201172	790.154541
432.941406	827.718201
431.681641	817.638123
430.421875	827.403687
429.161133	841.133057
427.901367	801.304626
426.640625	832.881165
425.378906	791.086670
424.118164	850.405212
422.856445	840.333923
421.594727	889.712769
420.333008	887.562439
419.071289	839.854736
417.808594	905.048645
416.545898	871.215881
415.283203	926.480652
414.020508	981.724365
412.756836	989.453308
411.493164	989.265076
410.229492	1084.028198
408.965820	1147.110962
407.701172	1180.508423
406.436523	1336.468872
405.171875	1504.229614
403.907227	1571.136719
402.641602	1669.632446
401.375977	1687.094360
400.110352	1672.947266
398.844727	1534.395020
397.578125	1555.821289
396.311523	1417.343994
395.044922	1294.708374
393.778320	1195.798584
392.510742	1162.031860
391.243164	1128.277832
389.975586	1126.090820
388.708008	1068.695190
387.439453	1023.149780
386.171875	1009.157837
384.902344	1064.143433
383.633789	1071.821655
382.365234	1103.135742
381.095703	1108.833984
379.826172	1214.956055
378.555664	1183.224365
377.286133	1362.121826
376.015625	1448.454712
374.745117	1719.712036
373.474609	1975.127930
372.203125	2295.353516
370.931641	2619.389893
369.660156	2746.689453
368.388672	2726.508057
367.116211	2403.665283
365.844727	2189.020752
364.572266	1799.605713
363.298828	1598.907959
362.026367	1419.889404
360.752930	1290.026855
359.479492	1232.849854
358.206055	1183.545532
356.931641	1095.012329
355.657227	1083.031372
354.382813	1000.435913
353.108398	1076.734375
351.833984	1068.685303
350.558594	999.863281
349.283203	1017.313782
348.006836	1015.159851
346.731445	1050.235107
345.455078	1057.870728
344.178711	1081.172607
342.902344	1067.258301
341.625000	1190.402100
340.348633	1246.942993
339.070313	1299.547974
337.792969	1289.515991
336.515625	1416.435913
335.237305	1459.197998
333.958984	1599.726563
332.680664	1732.380127
331.401367	1692.951050
330.122070	1676.991333
328.842773	1674.716797
327.563477	1664.627930
326.284180	1644.775635
325.003906	1621.024902
323.723633	1618.762451
322.442383	1602.834717
321.162109	1590.816895
319.880859	1695.896484
318.599609	1683.865234
317.318359	1771.329468
316.036133	1677.370117
314.753906	1796.002930
313.471680	1754.716187
312.189453	1670.560303
310.907227	1699.474854
309.624023	1601.721558
308.340820	1576.088745
307.057617	1538.778687
305.773438	1561.853638
304.489258	1477.830688
303.205078	1479.494629
301.920898	1399.411987
300.635742	1362.171021
299.351563	1334.672241
298.065430	1344.142822
296.780273	1227.195068
295.495117	1248.349365
294.208984	1154.793823
292.922852	1146.797852
291.635742	1061.070801
290.349609	1049.209839
289.062500	1021.812378
287.775391	1046.865845
286.488281	928.211609
285.200195	871.730591
283.912109	906.503845
282.624023	877.218933
281.335938	878.991333
280.046875	867.182922
278.757813	830.163757
277.468750	831.943970
276.179688	841.479065
274.889648	796.731873
273.600586	802.393677
272.309570	775.111023
271.019531	852.458740
269.729492	860.043518
268.438477	854.068665
267.147461	809.370239
265.855469	785.984070
264.564453	853.577637
263.272461	853.414001
261.980469	783.597290
260.687500	769.906006
259.395508	796.835327
258.102539	816.019470
256.808594	819.729614
255.515625	753.851990
254.221680	759.505127
252.928711	786.410400
251.633789	747.622742
250.339844	784.177246
249.044922	780.164612
247.750000	830.213928
246.455078	804.959961
245.160156	837.615295
243.864258	764.129028
242.568359	866.232544
241.272461	866.066284
239.975586	798.402283
238.679688	738.476746
237.382813	773.034790
236.085938	763.249390
234.788086	834.402893
233.490234	813.049438
232.192383	793.630432
230.894531	839.700073
229.596680	810.655579
228.297852	823.976135
226.999023	777.622437
225.700195	798.641907
224.400391	758.083069
223.100586	775.250732
221.800781	736.635193
220.500977	763.415100
219.201172	820.946106
217.900391	761.199463
216.599609	803.333923
215.297852	770.514343
213.997070	787.656250
212.695313	768.297424
211.393555	785.433105
210.091797	762.242065
208.789063	746.738403
207.486328	783.060913
206.183594	815.531616
204.880859	796.189514
203.577148	755.755005
202.273438	732.596191
200.969727	784.225647
